sample1,,0,1 mg mL,,EM-260 0,1,,EM-260 0,01,,
Wavelength (nm),Abs,Wavelength (nm),Abs,Wavelength (nm),Abs,Wavelength (nm),Abs,
800,0.1076506451,800,0.01664798148,800,0.001214531949,800,0.0003741875116,
799,0.1068535969,799,0.01678100973,799,0.001186497742,799,-0.0002207512007,
798,0.1072618291,798,0.01694252901,798,0.001021392061,798,0.0001457883482,
797,0.1071170717,797,0.01689954661,797,0.001003878191,797,-0.0001123305774,
796,0.1078387797,796,0.01666137576,796,0.0004589417658,796,0.0001892935688,
795,0.1078049988,795,0.0166294761,795,0.001681671944,795,0.0003185400856,
794,0.1074582487,794,0.01654508337,794,0.001648176811,794,0.0009072146495,
793,0.1067937762,793,0.0167161189,793,0.0006932874676,793,-0.0001531143935,
792,0.1070645005,792,0.01659432426,792,0.001130045392,792,0.0003101987822,
791,0.1067053676,791,0.01647320949,791,0.0006840056158,791,0.0004389371315,
790,0.1067600101,790,0.01624037884,790,0.0008603433962,790,0.0001167355222,
789,0.1057814583,789,0.01603834704,789,0.0003365185112,789,0.0003373475047,
788,0.1065105423,788,0.01646398753,788,0.001425106078,788,0.0001877915201,
787,0.1052085534,787,0.0152527364,787,0.0006058434374,787,6.088806549E-5,
786,0.1059853435,786,0.01658055373,786,0.0007123703836,786,0.0001714507234,
785,0.1054044142,785,0.01553858537,785,0.0008970721974,785,-0.0001294623216,
784,0.1055998281,784,0.01677156612,784,0.0007454563747,784,0.000185124125,
783,0.1056677997,783,0.01664445736,783,0.001315833651,783,0.0004970619339,
782,0.1053913757,782,0.01631181128,782,0.0007594850031,782,0.0001645364973,
781,0.1049571112,781,0.01660139672,781,0.001364961267,781,0.0006484873593,
780,0.1043367684,780,0.01611777768,780,0.0004175083304,780,-0.0001818884921,
779,0.1050293371,779,0.01702374034,779,0.0007129667792,779,0.0001939809881,
778,0.1045145467,778,0.01643105224,778,0.0003925309575,778,1.667088327E-5,
777,0.1046454608,777,0.01694032177,777,0.0007300539874,777,0.0002229353995,
776,0.1041491553,776,0.01654457301,776,0.000583654677,776,0.0002548962657,
775,0.1040233895,775,0.01653099246,775,0.0008108838229,775,0.0005576828262,
774,0.1044135988,774,0.01675674133,774,0.0009108981467,774,0.0004027393879,
773,0.1044536978,773,0.01681235619,773,0.001355015906,773,0.0006898909924,
772,0.1044665053,772,0.01679427549,772,0.0008383750683,772,0.0008164338069,
771,0.1036102697,771,0.01664311253,771,0.001071939594,771,0.0003418033593,
770,0.1035198495,770,0.01674156822,770,0.0008538332186,770,8.276532753E-5,
769,0.1028309613,769,0.0170398131,769,0.0009747160366,769,0.0007854170399,
768,0.1030829847,768,0.01701445319,768,0.0009439214482,768,0.000449561252,
767,0.1021163389,767,0.01673395373,767,0.0003740320681,767,0.0003067534999,
766,0.1026711464,766,0.01703599095,766,0.001013997244,766,0.0003519587626,
765,0.1021827608,765,0.01681372896,765,0.001021418022,765,0.000656472228,
764,0.1018212885,764,0.0168100968,764,0.0006795721129,764,0.0001438462641,
763,0.1016190276,763,0.0165562965,763,0.0005898497766,763,0.0006446245825,
762,0.1021529213,762,0.01710093021,762,0.0007061476354,762,0.0004350762465,
761,0.1019610167,761,0.0170279406,761,0.0006946875365,761,0.0003768819734,
760,0.1019208133,760,0.01667990908,760,0.000558175263,760,0.0007583958795,
759,0.1014262065,759,0.01732708327,759,0.0008027145523,759,-7.661570999E-5,
758,0.1012288705,758,0.01725397445,758,0.0008932590717,758,0.000676486874,
757,0.101354219,757,0.01726138219,757,0.000935568125,757,0.0005001199897,
756,0.1013180315,756,0.01738972217,756,0.000912298914,756,0.0003395495296,
755,0.1010032967,755,0.01675491221,755,0.0004494057503,755,-0.0001361906034,
754,0.1012024954,754,0.01691367477,754,0.001087406068,754,0.0003997338354,
753,0.1005945727,753,0.01733880118,753,0.0005356260808,753,0.0006146051455,
752,0.1013515368,752,0.01736339927,752,0.001277537667,752,0.0004919306957,
751,0.1013583019,751,0.01753680408,751,0.0009934740374,751,0.0006723127444,
750,0.1007343009,750,0.01762244105,750,0.001069422462,750,0.0004554434854,
749,0.10101372,749,0.01738293283,749,0.001074456726,749,0.0005131299258,
748,0.1006909832,748,0.01734308526,748,0.00110323634,748,0.0004162386758,
747,0.1008630618,747,0.01724328101,747,0.001188678085,747,0.0003814419033,
746,0.1002573445,746,0.01739255153,746,0.000802999828,746,0.000304266694,
745,0.1004373431,745,0.01731827296,745,0.0006101983599,745,0.0003507411457,
744,0.09976644814,744,0.01742986962,744,0.000784872449,744,0.0005180282169,
743,0.1008968577,743,0.01756214164,743,0.001078842324,743,0.0004253075458,
742,0.1003603265,742,0.01730652899,742,0.0005202570464,742,0.0001846579835,
741,0.1004678458,741,0.01746331155,741,0.0006486688508,741,0.0003903286706,
740,0.1003298387,740,0.01737910695,740,0.0006627461407,740,0.0002859269734,
739,0.1002763212,739,0.01720263995,739,0.00116775732,739,0.0004927340779,
738,0.1004136577,738,0.0170828905,738,0.0007816049038,738,0.000311804848,
737,0.1010255441,737,0.01760176569,737,0.0007422150811,737,0.000442176155,
736,0.1005342677,736,0.01733209379,736,0.0007262682775,736,0.0004276914115,
735,0.1000151038,735,0.01747886091,735,0.0007344101323,735,0.0002518140245,
734,0.1002832353,734,0.01694169454,734,0.0008058525855,734,0.000366725988,
733,0.100069955,733,0.01718588918,733,0.0006928726216,733,0.0002025272552,
732,0.1002574041,732,0.01710978895,732,0.0008191310335,732,9.255219629E-5,
731,0.1000461951,731,0.01700395532,731,0.0008129844791,731,0.0004765113699,
730,0.1001548693,730,0.01685366221,730,0.000477547932,730,6.969062088E-5,
729,0.1002840474,729,0.01708103158,729,0.0004400254402,729,0.0002875588543,
728,0.09994292259,728,0.01735658199,728,0.0008105985471,728,0.000362425315,
727,0.1005193591,727,0.01671945304,727,0.0006783017307,727,0.0002726389212,
726,0.1005797535,726,0.01719889604,726,0.0006166530657,726,0.0002125758183,
725,0.100333944,725,0.01711425744,725,0.0008472712361,725,0.000355870754,
724,0.1004368216,724,0.01686332189,724,0.0007570474409,724,0.0005007938016,
723,0.1002747864,723,0.01661129482,723,0.000657794415,723,0.0002045214205,
722,0.1002802998,722,0.01664946042,722,0.0006542427,722,0.0002138707496,
721,0.1002466157,721,0.01691154949,721,0.0006859241985,721,0.0002843468974,
720,0.09985123575,720,0.01692640595,720,0.0009432728984,720,0.00033245128,
719,0.1003759876,719,0.01705672033,719,0.0009197439067,719,0.0004183892743,
718,0.09741543233,718,0.01668200828,718,0.0005092942738,718,6.109131391E-6,
717,0.0978673175,717,0.01688649319,717,0.0006366918096,717,0.0004008997639,
716,0.09767960012,716,0.01684860326,716,0.0006939097075,716,0.0002830776502,
715,0.09729821235,715,0.01658163033,715,0.0007458194159,715,0.0001958456123,
714,0.09761940688,714,0.01696885191,714,0.00052214897,714,0.0002739858464,
713,0.09759860486,713,0.01639381982,713,0.0007819160819,713,0.0003558448225,
712,0.09772426635,712,0.01649211161,712,0.0009695272311,712,0.0003884891048,
711,0.09775494039,711,0.01681041904,711,0.0008341216017,711,0.0006736090872,
710,0.09703774005,710,0.01634702086,710,0.0004207990132,710,0.0001394959982,
709,0.09686677903,709,0.01658499241,709,0.0006094984128,709,0.0003111313272,
708,0.09677564353,708,0.01630681194,708,0.0006791573251,708,0.0003646015539,
707,0.09626598656,707,0.01612473652,707,0.0006064136978,707,0.0002656712895,
706,0.0960803479,706,0.01622108556,706,0.0003024793114,706,0.0005120414426,
705,0.09600332379,705,0.01647990383,705,0.0005154106184,705,0.0003990860714,
704,0.09582024813,704,0.016383579,704,0.0007021806086,704,0.0004830936668,
703,0.09574147314,703,0.01616178453,703,0.0004910496064,703,0.0002094420925,
702,0.09568751603,702,0.01639535278,702,0.0008816643967,702,0.0008319948683,
701,0.09572255611,701,0.0158817824,701,0.0006735831266,701,9.286289423E-5,
700,0.09580675513,700,0.01589955762,700,0.000721212069,700,0.0002873257326,
699,0.09582654387,699,0.01640648209,699,0.0008378304192,699,0.0006353956414,
698,0.09615792334,698,0.01642680541,698,0.000466456695,698,0.0003694722254,
697,0.09623145312,697,0.01597168483,697,0.0001722017041,697,0.0002921955311,
696,0.09643254429,696,0.01647433825,696,0.0005342006334,696,0.0004876287712,
695,0.09613825381,695,0.01581699774,695,0.0001822754566,695,0.0002598175197,
694,0.0964147374,694,0.01616307534,694,0.0009294459014,694,0.0005142184091,
693,0.0961182937,693,0.01623949222,693,0.0008749723202,693,0.0005634369445,
692,0.09634667635,692,0.01617543399,692,0.0008540666313,692,0.0002944750304,
691,0.09645015746,691,0.01636441238,691,0.0008201684104,691,0.0004770296509,
690,0.0965795666,690,0.01602335833,690,0.0007799193263,690,0.0001945507393,
689,0.09702456743,689,0.01647732221,689,0.000956918695,689,0.0004085691471,
688,0.09702926129,688,0.0163679067,688,0.0006090836832,688,0.0004236492387,
687,0.09794162214,687,0.0165322572,687,0.001074145315,687,0.0004957661731,
686,0.09813173115,686,0.01643699408,686,0.001127346186,686,0.0005253627314,
685,0.09800497442,685,0.0160429664,685,0.00072074536,685,0.0002611384843,
684,0.09833970666,684,0.01629579253,684,0.0006796239759,684,0.0003443681053,
683,0.0981118381,683,0.01597689651,683,0.0009938372532,683,0.0004801652976,
682,0.09810752422,682,0.0163370762,682,0.0008866186836,682,0.00058720581,
681,0.09848313034,681,0.01632092334,681,0.0008997180266,681,0.0002373356256,
680,0.0985186547,680,0.01600590162,680,0.000891443342,680,0.0005939971888,
679,0.09778469801,679,0.0161849726,679,0.001135910861,679,0.0006134904688,
678,0.09764047712,678,0.0160429664,678,0.0007324395119,678,0.0003465183545,
677,0.09752798826,677,0.01600678824,677,0.0009903087048,677,0.000557734631,
676,0.09746409208,676,0.01608014293,676,0.0007829534006,676,0.0005047330633,
675,0.09784244746,675,0.01626773551,675,0.00116941845,675,0.0007551544695,
674,0.09725915641,674,0.01572836004,674,0.0003436686238,674,0.0001357931324,
673,0.09797136486,673,0.01605940424,673,0.001130382763,673,0.0005061843549,
672,0.09676225483,672,0.01584325358,672,0.0007788820076,672,0.0006542686024,
671,0.09682038426,671,0.0157846231,671,0.0008462078404,671,0.0004207990132,
670,0.09677024186,670,0.01596266218,670,0.001038154121,670,0.0005106419558,
669,0.09651781619,669,0.01610880531,669,0.00109220692,669,0.000485218683,
668,0.0959078595,668,0.01601825655,668,0.0008836357156,668,0.0007441858179,
667,0.09511654824,667,0.01555838529,667,0.0007065365207,667,0.0004375897115,
666,0.0947945863,666,0.01576365717,666,0.001356911496,666,0.0005308053805,
665,0.09441141039,665,0.01574843749,665,0.000950822141,665,0.0005811662413,
664,0.09390580654,664,0.01558081619,664,0.001276888652,664,0.0006012293161,
663,0.09386686236,663,0.01564199664,663,0.0008803156088,663,0.0005947229802,
662,0.09352139384,662,0.01559560001,662,0.0009472161182,662,0.0006344623398,
661,0.09299898893,661,0.01534763258,661,0.001017915201,661,0.0004551843449,
660,0.0933572948,660,0.01556219533,660,0.00113092782,660,0.0005735456944,
659,0.09354710579,659,0.01595116779,659,0.001151794917,659,0.0008565047174,
658,0.09356595576,658,0.01579941437,658,0.0009757278604,658,0.0008289085235,
657,0.0935870558,657,0.01550821587,657,0.00118457689,657,0.0005432460457,
656,0.09369090945,656,0.01560990233,656,0.0009105609497,656,0.0006201785873,
655,0.09424225241,655,0.01566813514,655,0.001399603323,655,0.0006351104239,
654,0.09419350326,654,0.01532819029,654,0.0008221653989,654,0.0004943408421,
653,0.09415899962,653,0.01511371601,653,0.0008402165258,653,0.0001080873699,
652,0.09454700351,652,0.01581119932,652,0.0009867023909,652,0.0004879915796,
651,0.0946021378,651,0.0156473089,651,0.001149069634,651,0.0006467504427,
650,0.09485213459,650,0.01546660904,650,0.0009882071754,650,0.0005749453558,
649,0.09484640509,649,0.01552611031,649,0.0008570234641,649,0.0004887690302,
648,0.09528575838,648,0.01569714583,648,0.0008155779215,648,0.0005238336162,
647,0.0953881219,647,0.01533752214,647,0.0009067736682,647,0.0006534908316,
646,0.09492079914,646,0.01551757846,646,0.001337930094,646,0.0006279814406,
645,0.09485522658,645,0.01536031719,645,0.001062649651,645,0.0006072172546,
644,0.0945000276,644,0.01550282352,644,0.0009793860372,644,0.0005411207094,
643,0.09411932528,643,0.01540518552,643,0.00117492117,643,0.0007410741528,
642,0.09388610721,642,0.01515917573,642,0.0007749921642,642,0.0002895274956,
641,0.09334725142,641,0.01544565987,641,0.001226369175,641,0.0006599462358,
640,0.09348212928,640,0.01555114146,640,0.001026166254,640,0.0005847433349,
639,0.09320352972,639,0.01549356896,639,0.001245241845,639,0.0006709905574,
638,0.09227947891,638,0.01534285862,638,0.0008928959724,638,0.0005107197212,
637,0.09231562912,637,0.01526764408,637,0.00118821091,637,0.0004780144081,
636,0.09194422513,636,0.01528475061,636,0.001001802506,636,0.0005774855381,
635,0.09189429134,635,0.01550105307,635,0.0010442778,635,0.0003949664533,
634,0.09155400097,634,0.01520150341,634,0.00117424631,634,0.0004620254622,
633,0.09186413139,633,0.01542272698,633,0.001150471158,633,0.0005288356915,
632,0.09166546166,632,0.01540140435,632,0.0009294199408,632,0.000684550032,
631,0.09140509367,631,0.01542567741,631,0.0008074605139,631,0.0005281099584,
630,0.09167607874,630,0.0152414497,630,0.001284755301,630,0.000695802446,
629,0.09139279276,629,0.01521037705,629,0.001083876705,629,0.0006061285385,
628,0.09116151184,628,0.01553965826,628,0.001268866356,628,0.000670134963,
627,0.09105844796,627,0.01538230851,627,0.0009203664958,627,0.000587153947,
626,0.09116629511,626,0.01540346909,626,0.00117494713,626,0.0006009441568,
625,0.09102237225,625,0.01534575503,625,0.001293530688,625,0.0006191157154,
624,0.09124575555,624,0.01555886865,624,0.001142347464,624,0.0004109788279,
623,0.09117249399,623,0.01546612661,623,0.001360494993,623,0.000689035398,
622,0.09091337025,622,0.01513237134,622,0.001007380895,622,0.000566443603,
621,0.09079396725,621,0.01523144916,621,0.001267983695,621,0.000487784273,
620,0.09166613221,620,0.01549002808,620,0.0010596395,620,0.0008790446445,
619,0.09177551419,619,0.01583482325,619,0.001351951854,619,0.0006501724711,
618,0.09169088304,618,0.01537214406,618,0.0008286492084,618,0.0003426582844,
617,0.09245072305,617,0.01573708467,617,0.001085667289,617,0.0006928985822,
616,0.09174999595,616,0.01563383825,616,0.001121480833,616,0.0005858319928,
615,0.09220911562,615,0.01551993936,615,0.001304123783,615,0.0006452468224,
614,0.09233230352,614,0.01561771054,614,0.000934063457,614,0.0004603670095,
613,0.09269481152,613,0.01539896335,613,0.001134950551,613,0.0007635562215,
612,0.0927061215,612,0.01572624035,612,0.001047780854,612,0.0005076356465,
611,0.09274274856,611,0.01558671892,611,0.001168665825,611,0.000765864097,
610,0.09292020649,610,0.01583554782,610,0.0009089526138,610,0.0007155077765,
609,0.09289811552,609,0.01559959818,609,0.001126360032,609,0.0004668972397,
608,0.09325566888,608,0.0155741889,608,0.001139388653,608,0.0006471911329,
607,0.09307833016,607,0.01593664102,607,0.001106454409,607,0.0009219229105,
606,0.09351085871,606,0.0155919781,606,0.001379763009,606,0.0006581833004,
605,0.09305155277,605,0.01545174886,605,0.001237194287,605,0.0004104865366,
604,0.09263953567,604,0.01584132016,604,0.001261700992,604,0.0008159151184,
603,0.09211658686,603,0.0160365738,603,0.001221229322,603,0.0008590724901,
602,0.09232481569,602,0.01562833786,602,0.001248538843,602,0.0007485161768,
601,0.09181632102,601,0.01573235914,601,0.001105727744,601,0.0006793388166,
600,0.09195536375,600,0.0153381126,600,0.001184836496,600,0.0005943082506,
599,0.09209416062,599,0.0156236412,599,0.001227070112,599,0.000403283484,
598,0.09242068976,598,0.01561094914,598,0.001396097476,598,0.0009827069007,
597,0.09280188382,597,0.01575863734,597,0.001311445725,597,0.000695491326,
596,0.09299414605,596,0.01553225331,596,0.001385320327,596,0.0007614298374,
595,0.09265927225,595,0.01552315895,595,0.001156518701,595,0.001001050114,
594,0.09390850365,594,0.01572919264,594,0.001462843735,594,0.0008809381397,
593,0.09390583634,593,0.01556348335,593,0.001327258185,593,0.001032160129,
592,0.09395770729,592,0.01582658105,592,0.001391968341,592,0.0006806091988,
591,0.09426499158,591,0.01557829417,591,0.001420301502,591,0.000918861886,
590,0.0944269225,590,0.01574019715,590,0.001362442505,590,0.001063246396,
589,0.09421112388,589,0.01556377858,589,0.001350575592,589,0.001043655095,
588,0.09358184785,588,0.01575673185,588,0.001489960705,588,0.0006729868473,
587,0.09342925996,587,0.01563754119,587,0.00145455834,587,0.000848490221,
586,0.09333884716,586,0.01560936589,586,0.001372829545,586,0.0008980060229,
585,0.09309577942,585,0.01585423388,585,0.001614814159,585,0.0010590686,
584,0.09235222638,584,0.01625596546,584,0.001552590751,584,0.001113980543,
583,0.09289808571,583,0.01546290796,583,0.001642953954,583,0.00068986509,
582,0.09230025858,582,0.01580862142,582,0.001351951854,582,0.0007442376227,
581,0.09195814282,581,0.01555267069,581,0.001324531855,581,0.0008994326927,
580,0.09202692658,580,0.0156945698,580,0.001374673215,580,0.0007782596513,
579,0.09194464236,579,0.01571333036,579,0.001565684215,579,0.001000453369,
578,0.09146816283,578,0.01562949084,578,0.001757636899,578,0.001143541303,
577,0.09146822989,577,0.0157991983,577,0.001526768669,577,0.000906332687,
576,0.09124655277,576,0.01587909646,576,0.001485518995,576,0.001074949745,
575,0.09079709649,575,0.01589402556,575,0.001329361461,575,0.0008915989893,
574,0.09134100378,574,0.01609279402,574,0.00190074055,574,0.001040203962,
573,0.09060914814,573,0.01537651569,573,0.001614632201,573,0.0005832139868,
572,0.09120803326,572,0.01563206688,572,0.001631625113,572,0.0009499141597,
571,0.09121707082,571,0.01563579775,571,0.001776584657,571,0.0009985334473,
570,0.09169695526,570,0.01563950069,570,0.001503883512,570,0.0008090943447,
569,0.09144544601,569,0.01552659273,569,0.00173746841,569,0.0009271111339,
568,0.09441176802,568,0.01564572565,568,0.00180650258,568,0.0008886160213,
567,0.09425508976,567,0.01555183902,567,0.001678813482,567,0.0005881130346,
566,0.09390815347,566,0.0156834852,566,0.001641161041,566,0.0008280267357,
565,0.09391409904,565,0.0155333532,565,0.001792492112,565,0.001007692306,
564,0.09374127537,564,0.01527737733,564,0.001569035579,564,0.000827793323,
563,0.09335861355,563,0.01535487268,563,0.001746902708,563,0.0009170979611,
562,0.09318986535,562,0.01537630055,562,0.001931265113,562,0.0008675280842,
561,0.09285746515,561,0.01542543527,561,0.001806554617,561,0.001030629268,
560,0.09298988432,560,0.01524402294,560,0.00171467592,560,0.0007762109744,
559,0.09314925224,559,0.01517209597,559,0.001720133587,559,0.00114862842,
558,0.09306954592,558,0.01541977655,558,0.00173307606,558,0.001051050378,
557,0.09292828292,557,0.0154647585,557,0.001944890013,557,0.0008919621469,
556,0.09255348146,556,0.01555704419,556,0.002189795254,556,0.001153559773,
555,0.09236471355,555,0.01540647261,555,0.002140262164,555,0.0008752316935,
554,0.09234063327,554,0.01553566102,554,0.002352743177,554,0.000965791347,
553,0.09201144427,553,0.0153312739,553,0.002197340364,553,0.0008340697386,
552,0.0919001475,552,0.0155376466,552,0.00239006686,552,0.001079257461,
551,0.09142234176,551,0.01563104801,551,0.002628452145,551,0.0008942966815,
550,0.09138384461,550,0.01526793931,550,0.002610482741,550,0.0006737646181,
549,0.09141218662,549,0.01549507119,549,0.002586004091,549,0.0008192866226,
548,0.09132100642,548,0.0156550929,548,0.002766685095,548,0.001074690255,
547,0.0914696306,547,0.01569746807,547,0.003005094593,547,0.0009003665182,
546,0.09145090729,546,0.01549660042,546,0.002788568847,546,0.0008750760462,
545,0.09151986986,545,0.01597807743,545,0.00282509625,545,0.0009911909001,
544,0.09153511375,544,0.01569193974,544,0.002639182145,544,0.0007990319864,
543,0.09189675748,543,0.01559042186,543,0.002703671344,543,0.0008871115278,
542,0.09196019173,542,0.01582913287,542,0.002500625327,542,0.0008544556913,
541,0.09255962819,541,0.01600012742,541,0.002495131921,541,0.0007670569466,
540,0.09269782156,540,0.01577710547,540,0.002866056515,540,0.00112970802,
539,0.09324999154,539,0.01582435332,539,0.002620821586,539,0.001094620442,
538,0.09330036491,538,0.01600533724,538,0.002758270595,538,0.0008424470434,
537,0.09327094257,537,0.01564449258,537,0.002459309064,537,0.001027723076,
536,0.09356396645,536,0.01594421268,536,0.002411541296,536,0.000973989605,
535,0.09395519644,535,0.01577949524,535,0.002795941662,535,0.001175777754,
534,0.09393624216,534,0.01570184343,534,0.002581394976,534,0.001182214823,
533,0.0930948481,533,0.01586430334,533,0.002390613547,533,0.0009163456853,
532,0.09250947088,532,0.01571180113,532,0.002238839865,532,0.0009094714187,
531,0.09202887863,531,0.01567054912,531,0.002631889889,531,0.0009417422698,
530,0.09124799073,530,0.0157945808,530,0.002433224814,530,0.0009871434886,
529,0.09052857012,529,0.01588771679,529,0.00268064579,529,0.001356677734,
528,0.08988145739,528,0.01578722708,528,0.002180637559,528,0.0008470118628,
527,0.08929940313,527,0.01586489379,527,0.002522235271,527,0.001093608327,
526,0.08951476961,526,0.01619964279,526,0.002761891577,526,0.001438117819,
525,0.08925502002,525,0.01578714512,525,0.002515543951,525,0.001016358379,
524,0.0894420892,524,0.01582344063,524,0.002766033635,524,0.001097682631,
523,0.08947065473,523,0.0156216016,523,0.002358703408,523,0.000789929356,
522,0.08993103355,522,0.0158121381,522,0.00266819587,522,0.001177075552,
521,0.08967971057,521,0.01555540692,521,0.002737795003,521,0.001046716934,
520,0.09039533883,520,0.01588967629,520,0.002756056143,520,0.001012829598,
519,0.09038794041,519,0.01537804399,519,0.002691012342,519,0.0009947972139,
518,0.09092952311,518,0.01571665891,518,0.003043439006,518,0.0012673866,
517,0.0906790942,517,0.01540435385,517,0.00264702132,517,0.00132873829,
516,0.09090615809,516,0.01562232617,516,0.002652126132,516,0.001183668384,
515,0.09098958969,515,0.01564835571,515,0.002922813175,515,0.001033068285,
514,0.09139368683,514,0.01571206935,514,0.003192104166,514,0.001185900765,
513,0.09149957448,513,0.01578164287,513,0.002737482311,513,0.0009984555654,
512,0.0915222019,512,0.01535672322,512,0.002619832056,512,0.001308018458,
511,0.09171847254,511,0.01581683569,511,0.002725213068,511,0.001227822853,
510,0.09204462171,510,0.01561663765,510,0.002846253337,510,0.001001672819,
509,0.0924276337,509,0.01597939245,509,0.003080874216,509,0.001407679869,
508,0.09234882891,508,0.01540582906,508,0.002790340222,508,0.001251680078,
507,0.09231030941,507,0.0155619001,507,0.002953982912,507,0.001327440026,
506,0.09246635437,506,0.01562136039,506,0.002927764552,506,0.001144683338,
505,0.09244444966,505,0.01558996551,505,0.002780153882,505,0.0009435582324,
504,0.09270243347,504,0.01578124054,504,0.003082099603,504,0.001122103655,
503,0.09267391264,503,0.01534653269,503,0.002908062888,503,0.001007847954,
502,0.09264523536,502,0.01569679752,502,0.003055743407,502,0.001030681073,
501,0.09261473268,501,0.0156363342,501,0.002960602753,501,0.001286624582,
500,0.09223908186,500,0.01585928164,500,0.003143629991,500,0.001149017713,
499,0.09292238951,499,0.01575589925,499,0.00311708753,499,0.001558929565,
498,0.09296967834,498,0.01558041386,498,0.003111116821,498,0.001108997618,
497,0.0928889811,497,0.01566429622,497,0.003139432054,497,0.001356703695,
496,0.09320994467,496,0.01569832675,496,0.003211427713,496,0.001452246681,
495,0.09347259253,495,0.01574986055,495,0.003381333547,495,0.001151301782,
494,0.09346915781,494,0.01553842425,494,0.003214531112,494,0.001573478105,
493,0.09352117032,493,0.01547594462,493,0.003389003687,493,0.001383684226,
492,0.09313802421,492,0.01514333393,492,0.003133878345,492,0.001189301023,
491,0.09344283491,491,0.0155481901,491,0.003711789381,491,0.001335203648,
490,0.09324132651,490,0.01541529689,490,0.003482907312,490,0.001335099805,
489,0.09299744666,489,0.01479983609,489,0.003253571922,489,0.001324999263,
488,0.09294723719,488,0.01512548234,488,0.00367698865,488,0.001487155329,
487,0.09313677251,487,0.01511363592,487,0.003664144548,487,0.001423080335,
486,0.0938263163,486,0.01479737181,486,0.003846580628,486,0.001780405524,
485,0.09376524389,485,0.01472112723,485,0.003475653008,485,0.001605070778,
484,0.09358576685,484,0.01472774148,484,0.00339516066,484,0.001534250216,
483,0.09380366653,483,0.01450655051,483,0.003826576052,483,0.001420769026,
482,0.09419829398,482,0.01497841068,482,0.003871626919,482,0.00165675173,
481,0.09350158274,481,0.01486749575,481,0.003941001371,481,0.001644253149,
480,0.09373067319,480,0.01520683803,480,0.004210271407,480,0.001310199383,
479,0.09314986318,479,0.01483133435,479,0.004019034561,479,0.001370518352,
478,0.09267061204,478,0.01528169401,478,0.003991210368,478,0.001597198425,
477,0.0927079469,477,0.01535607968,477,0.004265923053,477,0.001662884257,
476,0.09203934669,476,0.01523976028,476,0.003989564721,476,0.001410484663,
475,0.09284352511,475,0.01554762665,475,0.00389278261,475,0.001738507999,
474,0.09184177965,474,0.01506065018,474,0.003853396978,474,0.001324505894,
473,0.09206151962,473,0.01554891467,473,0.004248094745,473,0.001247240813,
472,0.09252990037,472,0.01602163911,472,0.004432894289,472,0.001386514865,
471,0.09279050678,471,0.01654624008,471,0.004403684288,471,0.001850538421,
470,0.09329272807,470,0.01646839641,470,0.004522211384,470,0.001391448895,
469,0.09395969659,469,0.01687196083,469,0.004444192164,469,0.001698017702,
468,0.09428470582,468,0.01722275838,468,0.004673869349,468,0.00162370014,
467,0.09453628957,467,0.01717842929,467,0.0045568184,467,0.001525391941,
466,0.09549870342,466,0.01735426486,466,0.004799196497,466,0.001811025548,
465,0.09568051249,465,0.01709457487,465,0.004538716748,465,0.001829247805,
464,0.09714190662,464,0.01774722151,464,0.004977658857,464,0.001805332839,
463,0.09708535671,463,0.01760362461,463,0.004514625762,463,0.001982880756,
462,0.09702391922,462,0.0172000546,462,0.004497336689,462,0.001542640966,
461,0.09693200886,461,0.01749149896,461,0.004684649874,461,0.001760781743,
460,0.09659334272,460,0.01758268103,460,0.004889557604,460,0.001585506951,
459,0.09587109089,459,0.01777939126,459,0.005109779071,459,0.001577686868,
458,0.09630569816,458,0.01735838689,458,0.004804928787,458,0.001418795204,
457,0.09620986879,457,0.01781849749,457,0.004979308229,457,0.001708724652,
456,0.0962857008,456,0.01777370274,456,0.005368531682,456,0.001654309221,
455,0.09630062431,455,0.01786567084,455,0.005311611574,455,0.001852306188,
454,0.09649480134,454,0.01783373579,454,0.005354668014,454,0.001805592794,
453,0.09623035043,453,0.01778157614,453,0.005181028042,453,0.001985351322,
452,0.09649321437,452,0.01781075634,452,0.005365019664,452,0.001947802259,
451,0.09669058025,451,0.01761718467,451,0.005060016643,451,0.001678787521,
450,0.09688800573,450,0.01731393673,450,0.005078480579,450,0.001660389593,
449,0.0966206342,449,0.0174644161,449,0.005509448238,449,0.001585117308,
448,0.09645087272,448,0.01765775867,448,0.005421710666,448,0.001788489171,
447,0.09603451937,447,0.01768010855,447,0.005545576103,447,0.002168514067,
446,0.09658803791,446,0.01786032878,446,0.005738194566,446,0.00176319899,
445,0.09657500684,445,0.01744994521,445,0.005362110678,445,0.002108396264,
444,0.09674446285,444,0.01757564582,444,0.005790920928,444,0.001815938507,
443,0.09764187038,443,0.01781337336,443,0.005962206516,443,0.002221745206,
442,0.09757627547,442,0.01716165058,442,0.006005773321,442,0.002273759805,
441,0.09859992564,441,0.01734777354,441,0.005985117983,441,0.001876145718,
440,0.09832406044,440,0.01727840491,440,0.005926805083,440,0.002022617497,
439,0.09948603809,439,0.01774549484,439,0.00591032533,439,0.001897256705,
438,0.09890891612,438,0.01705618203,438,0.005725000985,438,0.002311857417,
437,0.09897891432,437,0.01697988994,437,0.006118673831,437,0.001979032066,
436,0.09864280373,436,0.01684039459,436,0.006311783101,436,0.002035568934,
435,0.09870385379,435,0.01680057123,435,0.006368703209,435,0.002235249151,
434,0.09828841686,434,0.01627880894,434,0.006144035142,434,0.001853112131,
433,0.09844107181,433,0.01686730608,433,0.006533095147,433,0.00184952456,
432,0.0981112197,432,0.01634500548,432,0.006407319102,432,0.001890158863,
431,0.09821181744,431,0.01645737328,431,0.006594958715,431,0.002119763754,
430,0.09760478884,430,0.01647759229,430,0.006543527823,430,0.002069952432,
429,0.09857212007,429,0.01616812497,429,0.006204504054,429,0.002012318699,
428,0.09870359302,428,0.01617650874,428,0.00682840636,428,0.002362945816,
427,0.09887774289,427,0.01608135179,427,0.006901226472,427,0.002409745241,
426,0.09881157428,426,0.01617151126,426,0.006722103804,426,0.002003892791,
425,0.09984472394,425,0.01615880243,425,0.006920347456,425,0.001731308876,
424,0.09966129065,424,0.01599690318,424,0.007215105928,424,0.002122495091,
423,0.0994309634,423,0.0158780776,423,0.007084290963,423,0.002494064625,
422,0.1000406519,422,0.01629452966,422,0.006918453611,422,0.002339417813,
421,0.1005207598,421,0.01650297455,421,0.006758253556,421,0.002434708644,
420,0.09989394993,420,0.01622436382,420,0.006907775532,420,0.0020452959,
419,0.09932334721,419,0.01592477039,419,0.006564682815,419,0.001710102079,
418,0.09845062345,418,0.01580303721,418,0.007267590612,418,0.001738248044,
417,0.09838181734,417,0.01606101729,417,0.00715636462,417,0.002082333202,
416,0.09778486192,416,0.01590801589,416,0.006993788294,416,0.002115861746,
415,0.09830000997,415,0.01648071036,415,0.007769329473,415,0.00262264465,
414,0.09869127721,414,0.01659389399,414,0.008063874207,414,0.002583920723,
413,0.09801185131,413,0.01565372385,413,0.007847210392,413,0.002230175305,
412,0.09877995402,412,0.01637196541,412,0.008305632509,412,0.002672701608,
411,0.09893137962,411,0.0161659494,411,0.007792442106,411,0.002649157075,
410,0.1003733426,410,0.01624758169,410,0.008326346055,410,0.002520152368,
409,0.1001282036,409,0.01650848612,409,0.008298139088,409,0.002714064438,
408,0.1005679443,408,0.01646788605,408,0.008024714887,408,0.00254663243,
407,0.101002939,407,0.01632568054,407,0.008801070973,407,0.002275555162,
406,0.1012945324,406,0.01635957323,406,0.00848921109,406,0.003006632673,
405,0.1022428647,405,0.01620203443,405,0.009012211114,405,0.002744828351,
404,0.1021058261,404,0.01608011499,404,0.008792405948,404,0.002761839423,
403,0.1020864099,403,0.01609784551,403,0.009168697521,403,0.002825877862,
402,0.1025652811,402,0.01640693843,402,0.009212931618,402,0.00264324504,
401,0.103004545,401,0.01601546258,401,0.00928181503,401,0.003042839468,
400,0.1026807576,400,0.01602940261,400,0.008861434646,400,0.002706119791,
399,0.1031657308,399,0.01638422348,399,0.009445700794,399,0.003239645157,
398,0.1035640389,398,0.01637575589,398,0.009659140371,398,0.00304213562,
397,0.1039636359,397,0.01639637351,397,0.01003936306,397,0.002964434214,
396,0.1033581048,396,0.0164732635,396,0.01012814417,396,0.002779554576,
395,0.1039920151,395,0.01639903523,395,0.01025502943,395,0.003108249046,
394,0.1039498523,394,0.01660317183,394,0.01033643167,394,0.002850344172,
393,0.104541488,393,0.01665301062,393,0.01046393439,393,0.003195103025,
392,0.1046099216,392,0.0169804804,392,0.01051540766,392,0.003061817493,
391,0.1047911048,391,0.01757834107,391,0.01145423576,391,0.002929771319,
390,0.1057590395,390,0.01672674529,390,0.01093710121,390,0.002786406316,
389,0.1055928618,389,0.01707656309,389,0.01065394562,389,0.002394908341,
388,0.1065890864,388,0.01768199541,388,0.01162370201,388,0.003545094747,
387,0.1077025235,387,0.01797921397,387,0.011936225,387,0.003739673877,
386,0.107732214,386,0.01812941208,386,0.01205874234,386,0.003506236244,
385,0.1090694815,385,0.01769927889,385,0.01221401431,385,0.003280200996,
384,0.1092464477,384,0.01866634749,384,0.01226878446,384,0.003555168631,
383,0.1104059443,383,0.01901754364,383,0.01284043025,383,0.004209931474,
382,0.1104379892,382,0.01800053008,382,0.01220352482,382,0.003044142853,
381,0.1120774969,381,0.01955988444,381,0.01337227784,381,0.003990766127,
380,0.1123683378,380,0.0195445586,380,0.01395508181,380,0.003858359298,
379,0.112943992,379,0.01948463917,379,0.01348694973,379,0.003870895598,
378,0.1145159677,378,0.02064953372,378,0.01510334387,378,0.005049305037,
377,0.1152506247,377,0.01957859658,377,0.01427693944,377,0.003615591442,
376,0.1159852147,376,0.01943217404,376,0.01382786036,376,0.0030500344,
375,0.1193201914,375,0.02100562491,375,0.01530545112,375,0.004502567928,
374,0.1209209636,374,0.0214680396,374,0.01605870761,374,0.004624522757,
373,0.1229965314,373,0.02118609101,373,0.0158794187,373,0.003897066228,
372,0.1226013228,372,0.02219389938,372,0.0169878304,372,0.005066039972,
371,0.1240859553,371,0.02247219719,371,0.01718949713,371,0.005152632017,
370,0.1262141317,370,0.02168004215,370,0.01656135358,370,0.005454659462,
369,0.1280270219,369,0.02284361795,369,0.01848171279,369,0.005937616806,
368,0.13295044,368,0.02267413586,368,0.01738177426,368,0.005308703054,
367,0.134024024,367,0.02229076065,367,0.01814293303,367,0.005291329697,
366,0.136832118,366,0.0228211917,366,0.01889469661,366,0.00560037652,
365,0.138831988,365,0.02386455797,365,0.01880461909,365,0.005819752347,
364,0.141872108,364,0.02314398251,364,0.01864827052,364,0.005929245614,
363,0.1449532509,363,0.02617332153,363,0.01965190656,363,0.006700573023,
362,0.1464589834,362,0.02428482845,362,0.02056563273,362,0.006105993874,
361,0.1498337537,361,0.0257300958,361,0.02093553543,361,0.005502134096,
360,0.1536409706,360,0.02704539709,360,0.02224364877,360,0.007040431723,
359,0.1558205634,359,0.02680539899,359,0.02166243829,359,0.005866768304,
358,0.1588953584,358,0.02714103088,358,0.02150146663,358,0.005534407217,
357,0.1654473692,357,0.02765761502,357,0.02384932525,357,0.007042773068,
356,0.164428249,356,0.02717558667,356,0.01926426031,356,0.005904605146,
355,0.1695294231,355,0.02862383239,355,0.02140513621,355,0.006271967199,
354,0.1737767756,354,0.03055376746,354,0.02340999432,354,0.006908538286,
353,0.1775210649,353,0.0328797549,353,0.02370768972,353,0.007135233376,
352,0.178979218,352,0.02671669424,352,0.02088471316,352,0.001262895297,
351,0.1861535013,351,0.03328559548,351,0.02437563986,351,0.01008630823,
350,0.1880502105,350,0.03115727007,350,0.02588395961,350,0.004293476697,
349,0.1965566128,349,0.03561244532,349,0.02838973142,349,0.007504533976,
348,0.2261454612,348,0.03360756114,348,0.02545714378,348,0.006274698768,
347,0.2306203842,347,0.03508660197,347,0.02654096112,347,0.007794102188,
346,0.2354518026,346,0.03597019985,346,0.02647244744,346,0.007293177303,
345,0.237377733,345,0.03591828793,345,0.02733660862,345,0.007185549941,
344,0.2419385314,344,0.03717946261,344,0.02818144299,344,0.007832924835,
343,0.2452990115,343,0.03742015734,343,0.02816282585,343,0.007523365319,
342,0.2495849282,342,0.03866419941,342,0.02846962959,342,0.007867269218,
341,0.2529058158,341,0.03800110519,341,0.02823340148,341,0.006810025778,
340,0.2572187781,340,0.04035783187,340,0.03001766838,340,0.008097788319,
339,0.2604211867,339,0.03976169601,339,0.02937231399,339,0.007854590192,
338,0.2633484006,338,0.04042087123,338,0.03040795773,338,0.007561821025,
337,0.2667629719,337,0.04081726819,337,0.02984844148,337,0.007035301533,
336,0.2706593871,336,0.04159913212,336,0.03185776249,336,0.008246690966,
335,0.2740009725,335,0.04258419946,335,0.03126179799,335,0.007614110596,
334,0.2774706185,334,0.04400107265,334,0.03231654689,334,0.008914647624,
333,0.2803687155,333,0.04363641515,333,0.03253765404,333,0.008823445067,
332,0.2828198969,332,0.04460695758,332,0.03216833249,332,0.008446238935,
331,0.2855684459,331,0.04483205825,331,0.03326446563,331,0.009073081426,
330,0.2878888845,330,0.0457072556,330,0.03441439569,330,0.009547776543,
329,0.2892814577,329,0.04597024992,329,0.0338976644,329,0.008105832152,
328,0.292555064,328,0.04727078229,328,0.0357994251,328,0.008980550803,
327,0.2945488095,327,0.04689143598,327,0.03621787578,327,0.009558255784,
326,0.2977784574,326,0.04710964486,326,0.03651468456,326,0.009180938825,
325,0.2998404205,325,0.04844193161,325,0.03818165138,325,0.01044951007,
324,0.3023260832,324,0.04844962806,324,0.03859838843,324,0.01021736767,
323,0.3032763898,323,0.04875636846,323,0.03991502523,323,0.009786232375,
322,0.3047148585,322,0.04941377044,322,0.04015743732,322,0.01018826943,
321,0.3067244589,321,0.04952812195,321,0.04218687117,321,0.01134570595,
320,0.3088159561,320,0.05004152283,320,0.04299095273,320,0.01092802268,
319,0.3117370307,319,0.05109963566,319,0.045203235,319,0.01225871872,
318,0.3133426309,318,0.051525902,318,0.04650218785,318,0.01320372894,
317,0.3149450719,317,0.05180548131,317,0.04847092927,317,0.01345522795,
316,0.3167082667,316,0.05129658058,316,0.04932119325,316,0.01258662157,
315,0.3191466331,315,0.05137623101,315,0.05185252801,315,0.01349720359,
314,0.3211393952,314,0.05075024441,314,0.05325547233,314,0.01357820164,
313,0.3244225681,313,0.05162521824,313,0.05645146593,313,0.01542626694,
312,0.327570647,312,0.05229658633,312,0.05854963884,312,0.01617914066,
311,0.3299369514,311,0.05229518563,311,0.06162056699,311,0.01618910953,
310,0.3345140517,310,0.05458291247,310,0.06564884633,310,0.01752845012,
309,0.3372344077,309,0.05443664268,309,0.06758181751,309,0.01819842868,
308,0.3427517712,308,0.05374988914,308,0.0718633309,308,0.01937075518,
307,0.3467667401,307,0.05538036302,307,0.07449398935,307,0.0196427796,
306,0.351867944,306,0.05574318394,306,0.07913926244,306,0.02079919167,
305,0.3573317528,305,0.05715065449,305,0.08364044875,305,0.02205380984,
304,0.3624379337,304,0.05774602666,304,0.08845840394,304,0.02334003523,
303,0.3697324991,303,0.05862683803,303,0.09316641092,303,0.02454370633,
302,0.378082186,302,0.06053858995,302,0.09942920506,302,0.0265730191,
301,0.3871965706,301,0.0615131557,301,0.1059840173,301,0.02799815871,
300,0.3960338533,300,0.06374284625,300,0.1121656299,300,0.02986624278,
299,0.4071812928,299,0.06500054896,299,0.1192920804,299,0.0320292227,
298,0.4187145531,298,0.0667521283,298,0.1267020404,298,0.0327199623,
297,0.4344188869,297,0.06957684457,297,0.1367874593,297,0.03640511259,
296,0.4517900646,296,0.07249792665,296,0.1471174955,296,0.0384288393,
295,0.4712165892,295,0.07557554543,295,0.1583141983,295,0.04169286788,
294,0.4948647916,294,0.08084326982,294,0.1718404591,294,0.04613735899,
293,0.5201078057,293,0.08459962159,293,0.1853277087,293,0.04912824556,
292,0.5493676662,292,0.09011374414,292,0.2007180154,292,0.05344428867,
291,0.5823376179,291,0.09631474316,291,0.2183806896,291,0.05837955326,
290,0.6182766557,290,0.1023542881,290,0.2375245094,290,0.06364329904,
289,0.655962646,289,0.1087475568,289,0.2579213977,289,0.06905128062,
288,0.6983696222,288,0.1161486804,288,0.2802496552,288,0.07579894364,
287,0.7408559918,287,0.1243616566,287,0.3034756184,287,0.08269476146,
286,0.7867236137,286,0.1321381181,286,0.3279543817,286,0.08978687227,
285,0.8319458365,285,0.1400729269,285,0.3535457253,285,0.09750605375,
284,0.8778329492,284,0.1480605602,284,0.3782012761,284,0.1041515544,
283,0.9245023131,283,0.1569691002,283,0.4049611092,283,0.1111606285,
282,0.9739784002,282,0.1651812047,282,0.4331353307,282,0.1181878224,
281,1.027505398,281,0.1751446128,281,0.4637519419,281,0.1272656173,
280,1.086005211,280,0.1851862967,280,0.4967582226,280,0.1358172596,
279,1.154902101,279,0.1975122988,279,0.5363920331,279,0.1466972977,
278,1.234055877,278,0.2122606337,278,0.5815724134,278,0.159158662,
277,1.329890609,277,0.2291774452,277,0.6361045241,277,0.1744015217,
276,1.436372042,276,0.2484749556,276,0.6991135478,276,0.1915217489,
275,1.543677211,275,0.2682681978,275,0.7661304474,275,0.2092928588,
274,1.627957463,274,0.2808792293,274,0.8200594783,274,0.2232707292,
273,1.658520222,273,0.2866995037,273,0.8444393873,273,0.2287706733,
272,1.658367038,272,0.2863474488,272,0.8509143591,272,0.2312556207,
271,1.671592832,271,0.2887345254,271,0.8615491986,271,0.2339612991,
270,1.716301918,270,0.2974801362,270,0.8933309913,270,0.2418202013,
269,1.796707034,269,0.3117980659,269,0.9438660741,269,0.2559710443,
268,1.888386011,268,0.32844612,268,1.002258778,268,0.2715538442,
267,1.959614873,267,0.3414480686,267,1.054777145,267,0.2850790024,
266,1.992011428,266,0.3465666175,266,1.08169651,266,0.2916123569,
265,1.989172101,265,0.3454007804,265,1.090086699,265,0.2944228053,
264,1.991037011,264,0.3465263247,264,1.099589825,264,0.2973821461,
263,2.017050266,263,0.351441592,263,1.124562383,263,0.3036281765,
262,2.071597815,262,0.3613840938,262,1.164670587,262,0.3148362339,
261,2.136580467,261,0.3732787073,261,1.212029815,261,0.3273766637,
260,2.189366102,260,0.3836162984,260,1.253761292,260,0.3380921483,
259,2.230082035,259,0.3906008601,259,1.288848042,259,0.3470349312,
258,2.262401581,258,0.3963622153,258,1.32227993,258,0.3563227057,
257,2.294309139,257,0.4045405388,257,1.360566497,257,0.3665830195,
256,2.34909606,256,0.4155666828,256,1.412199616,256,0.3798816204,
255,2.410965443,255,0.429454565,255,1.47091651,255,0.3958010077,
254,2.479703665,254,0.4431921244,254,1.532233477,254,0.4131395221,
253,2.545701504,253,0.457580477,253,1.593937516,253,0.4294781089,
252,2.604922771,252,0.4725582302,252,1.659919381,252,0.4469668269,
251,2.669313908,251,0.4866742194,251,1.733702898,251,0.466814518,
250,2.729526758,250,0.5063538551,250,1.813439727,250,0.4893496931,
249,2.809392214,249,0.5274770856,249,1.899104357,249,0.5133560896,
248,2.883328199,248,0.5527888536,248,1.994989514,248,0.5396416187,
247,2.953002214,247,0.5793805718,247,2.100615978,247,0.5691176057,
246,3.018071651,246,0.6093288064,246,2.208491325,246,0.598624289,
245,3.074390173,245,0.6445116401,245,2.321595192,245,0.6319573522,
244,3.11948061,244,0.6851397753,244,2.444995403,244,0.6675841808,
243,3.14265275,243,0.7279222012,243,2.567939043,243,0.7049915195,
242,3.157211065,242,0.7733257413,242,2.691037655,242,0.7424784303,
241,3.1574471,241,0.8188526034,241,2.807050467,241,0.7810686231,
240,3.145470381,240,0.8621971011,240,2.916814327,240,0.8182849288,
239,3.123977184,239,0.9055725932,239,3.008658648,239,0.8545132875,
238,3.107425451,238,0.9434075356,238,3.092121601,238,0.8891280293,
237,3.052292347,237,0.9777446389,237,3.159224272,237,0.9232488275,
236,3.018559456,236,1.01007545,236,3.181614399,236,0.9532339573,
235,2.954520941,235,1.037507057,235,3.203387499,235,0.9841595292,
234,2.882809401,234,1.061757207,234,3.177224398,234,1.009553909,
233,2.781623602,233,1.084568024,233,3.132086515,233,1.03481257,
232,2.664548635,232,1.100300312,232,3.045839548,232,1.057994604,
231,2.505003452,231,1.115212798,231,2.925677776,231,1.075441122,
230,2.32784152,230,1.124119639,230,2.743822813,230,1.093476415,
229,2.093062878,229,1.131071091,229,2.516556263,229,1.100420237,
228,1.825363874,228,1.124612689,228,2.241877317,228,1.103643179,
227,1.507750869,227,1.114245296,227,1.952587008,227,1.089197993,
226,1.169922948,226,1.074959278,226,1.632181168,226,1.0349648,
225,0.8754395247,225,1.018866777,225,1.322175264,225,0.9596688747,
224,0.6482254267,224,0.9332002997,224,1.105362058,224,0.8589117527,
223,0.5171136856,223,0.9514631629,223,0.9572523236,223,0.8263343573,
222,0.3912268281,222,0.8958370686,222,0.8139144182,222,0.7766891122,
221,0.2897110879,221,0.8484523892,221,0.7405824065,221,0.7541663051,
220,0.2005373538,220,0.7744600177,220,0.5816896558,220,0.698321104,
219,0.08377115428,219,0.7256696224,219,0.5119844675,219,0.6688981652,
218,-0.01693624072,218,0.7112683058,218,0.3825139403,218,0.6087872386,
217,-0.09159275889,217,0.7173754573,217,0.3035919368,217,0.5457413793,
216,-0.1461968869,216,0.6122557521,216,0.2398368269,216,0.4765456617,
215,-0.2681615055,215,0.5350848436,215,0.0899984464,215,0.3804742396,
214,-0.3373191357,214,0.5790216923,214,0.02603073232,214,0.3644411266,
213,-0.3846687376,213,0.5226583481,213,-0.02341655642,213,0.3237133622,
212,-0.3576591909,212,0.4168206155,212,-0.006499699317,212,0.3199703097,
211,-0.4576302469,211,0.4056471586,211,-0.1152446046,211,0.2532760203,
210,-0.5259692669,210,0.3246999085,210,-0.2042274624,210,0.2091951668,
209,-0.5179687142,209,0.2687233388,209,-0.1775961369,209,0.2708114386,
208,-0.581272006,208,0.3523310423,208,-0.2720008194,208,0.130390361,
207,-0.6299126148,207,0.3944548666,207,-0.2831215858,207,0.129093647,
206,-0.5661446452,206,0.3133379519,206,-0.1860311329,206,0.1206957996,
205,-0.646045804,205,0.2123314887,205,-0.2998344004,205,0.02600093931,
204,-0.6551843286,204,0.3126765788,204,-0.2756900489,204,0.07847995311,
203,-0.6196140051,203,0.3295018375,203,-0.3406400979,203,0.1740767062,
202,-0.7663587928,202,0.1787949502,202,-0.4003881216,202,-0.01363898721,
201,-0.6046132445,201,0.7144576907,201,-0.2261315435,201,0.3364106715,
200,-0.8182591796,200,10,200,-0.3763594925,200,0.7476915717,

