3998.87043,0.98182
3997.84587,0.98233
3996.82131,0.98320
3995.79675,0.98411
3994.77218,0.98446
3993.74762,0.98451
3992.72306,0.98476
3991.69849,0.98519
3990.67393,0.98587
3989.64937,0.98659
3988.62480,0.98680
3987.60024,0.98661
3986.57568,0.98660
3985.55111,0.98724
3984.52655,0.98842
3983.50199,0.98929
3982.47742,0.98937
3981.45286,0.98942
3980.42830,0.99013
3979.40373,0.99083
3978.37917,0.99104
3977.35461,0.99133
3976.33004,0.99149
3975.30548,0.99132
3974.28092,0.99149
3973.25635,0.99203
3972.23179,0.99233
3971.20723,0.99232
3970.18266,0.99249
3969.15810,0.99332
3968.13354,0.99432
3967.10897,0.99457
3966.08441,0.99459
3965.05985,0.99493
3964.03528,0.99497
3963.01072,0.99491
3961.98616,0.99506
3960.96159,0.99513
3959.93703,0.99532
3958.91247,0.99566
3957.88790,0.99600
3956.86334,0.99634
3955.83878,0.99627
3954.81421,0.99592
3953.78965,0.99613
3952.76509,0.99688
3951.74052,0.99751
3950.71596,0.99803
3949.69140,0.99848
3948.66683,0.99879
3947.64227,0.99905
3946.61771,0.99921
3945.59314,0.99950
3944.56858,1.00000
3943.54402,1.00032
3942.51946,1.00009
3941.49489,0.99951
3940.47033,0.99946
3939.44577,1.00006
3938.42120,1.00065
3937.39664,1.00083
3936.37208,1.00084
3935.34751,1.00097
3934.32295,1.00104
3933.29839,1.00085
3932.27382,1.00046
3931.24926,1.00000
3930.22470,0.99980
3929.20013,0.99982
3928.17557,0.99991
3927.15101,1.00047
3926.12644,1.00121
3925.10188,1.00115
3924.07732,1.00031
3923.05275,0.99970
3922.02819,0.99992
3921.00363,1.00064
3919.97906,1.00081
3918.95450,1.00023
3917.92994,0.99983
3916.90537,0.99962
3915.88081,0.99896
3914.85625,0.99851
3913.83168,0.99881
3912.80712,0.99910
3911.78256,0.99889
3910.75799,0.99862
3909.73343,0.99880
3908.70887,0.99932
3907.68430,0.99974
3906.65974,0.99985
3905.63518,0.99993
3904.61061,0.99988
3903.58605,0.99917
3902.56149,0.99867
3901.53692,0.99860
3900.51236,0.99811
3899.48780,0.99746
3898.46323,0.99668
3897.43867,0.99605
3896.41411,0.99614
3895.38954,0.99672
3894.36498,0.99725
3893.34042,0.99764
3892.31585,0.99807
3891.29129,0.99775
3890.26673,0.99637
3889.24217,0.99574
3888.21760,0.99626
3887.19304,0.99744
3886.16848,0.99893
3885.14391,0.99853
3884.11935,0.99670
3883.09479,0.99613
3882.07022,0.99663
3881.04566,0.99734
3880.02110,0.99730
3878.99653,0.99649
3877.97197,0.99624
3876.94741,0.99660
3875.92284,0.99720
3874.89828,0.99828
3873.87372,0.99826
3872.84915,0.99662
3871.82459,0.99644
3870.80003,0.99862
3869.77546,0.99971
3868.75090,0.99672
3867.72634,0.99460
3866.70177,0.99557
3865.67721,0.99756
3864.65265,0.99737
3863.62808,0.99546
3862.60352,0.99497
3861.57896,0.99521
3860.55439,0.99452
3859.52983,0.99394
3858.50527,0.99448
3857.48070,0.99535
3856.45614,0.99586
3855.43158,0.99737
3854.40701,1.00000
3853.38245,0.99797
3852.35789,0.99271
3851.33332,0.99088
3850.30876,0.99151
3849.28420,0.99267
3848.25963,0.99357
3847.23507,0.99395
3846.21051,0.99391
3845.18594,0.99430
3844.16138,0.99530
3843.13682,0.99530
3842.11225,0.99455
3841.08769,0.99495
3840.06313,0.99581
3839.03857,0.99615
3838.01400,0.99577
3836.98944,0.99398
3835.96488,0.99275
3834.94031,0.99303
3833.91575,0.99374
3832.89119,0.99476
3831.86662,0.99553
3830.84206,0.99498
3829.81750,0.99462
3828.79293,0.99552
3827.76837,0.99673
3826.74381,0.99698
3825.71924,0.99635
3824.69468,0.99619
3823.67012,0.99684
3822.64555,0.99807
3821.62099,0.99904
3820.59643,0.99740
3819.57186,0.99529
3818.54730,0.99559
3817.52274,0.99774
3816.49817,1.00002
3815.47361,0.99929
3814.44905,0.99694
3813.42448,0.99609
3812.39992,0.99648
3811.37536,0.99716
3810.35079,0.99766
3809.32623,0.99827
3808.30167,0.99975
3807.27710,1.00100
3806.25254,0.99916
3805.22798,0.99668
3804.20341,0.99633
3803.17885,0.99786
3802.15429,1.00007
3801.12972,0.99945
3800.10516,0.99629
3799.08060,0.99527
3798.05603,0.99640
3797.03147,0.99773
3796.00691,0.99786
3794.98234,0.99745
3793.95778,0.99748
3792.93322,0.99771
3791.90865,0.99775
3790.88409,0.99769
3789.85953,0.99761
3788.83496,0.99732
3787.81040,0.99675
3786.78584,0.99642
3785.76128,0.99664
3784.73671,0.99683
3783.71215,0.99640
3782.68759,0.99595
3781.66302,0.99623
3780.63846,0.99667
3779.61390,0.99628
3778.58933,0.99531
3777.56477,0.99499
3776.54021,0.99519
3775.51564,0.99565
3774.49108,0.99626
3773.46652,0.99705
3772.44195,0.99815
3771.41739,0.99935
3770.39283,0.99987
3769.36826,0.99838
3768.34370,0.99664
3767.31914,0.99706
3766.29457,0.99859
3765.27001,0.99914
3764.24545,0.99855
3763.22088,0.99803
3762.19632,0.99836
3761.17176,0.99924
3760.14719,0.99976
3759.12263,0.99952
3758.09807,0.99947
3757.07350,0.99962
3756.04894,0.99877
3755.02438,0.99819
3753.99981,0.99953
3752.97525,1.00186
3751.95069,1.00198
3750.92612,0.99970
3749.90156,0.99865
3748.87700,0.99771
3747.85243,0.99598
3746.82787,0.99576
3745.80331,0.99813
3744.77874,1.00124
3743.75418,0.99863
3742.72962,0.99559
3741.70505,0.99579
3740.68049,0.99702
3739.65593,0.99787
3738.63136,0.99872
3737.60680,0.99954
3736.58224,1.00000
3735.55767,0.99944
3734.53311,0.99747
3733.50855,0.99637
3732.48399,0.99673
3731.45942,0.99647
3730.43486,0.99564
3729.41030,0.99584
3728.38573,0.99667
3727.36117,0.99722
3726.33661,0.99708
3725.31204,0.99658
3724.28748,0.99653
3723.26292,0.99713
3722.23835,0.99726
3721.21379,0.99568
3720.18923,0.99485
3719.16466,0.99557
3718.14010,0.99622
3717.11554,0.99669
3716.09097,0.99763
3715.06641,0.99853
3714.04185,0.99906
3713.01728,0.99963
3711.99272,0.99921
3710.96816,0.99736
3709.94359,0.99680
3708.91903,0.99714
3707.89447,0.99661
3706.86990,0.99636
3705.84534,0.99706
3704.82078,0.99781
3703.79621,0.99824
3702.77165,0.99880
3701.74709,0.99880
3700.72252,0.99737
3699.69796,0.99631
3698.67340,0.99652
3697.64883,0.99707
3696.62427,0.99733
3695.59971,0.99727
3694.57514,0.99721
3693.55058,0.99749
3692.52602,0.99770
3691.50145,0.99702
3690.47689,0.99564
3689.45233,0.99531
3688.42776,0.99562
3687.40320,0.99492
3686.37864,0.99462
3685.35407,0.99516
3684.32951,0.99555
3683.30495,0.99531
3682.28039,0.99485
3681.25582,0.99473
3680.23126,0.99519
3679.20670,0.99557
3678.18213,0.99525
3677.15757,0.99598
3676.13301,0.99839
3675.10844,0.99736
3674.08388,0.99268
3673.05932,0.99149
3672.03475,0.99352
3671.01019,0.99624
3669.98563,0.99622
3668.96106,0.99460
3667.93650,0.99376
3666.91194,0.99360
3665.88737,0.99417
3664.86281,0.99495
3663.83825,0.99523
3662.81368,0.99540
3661.78912,0.99584
3660.76456,0.99614
3659.73999,0.99617
3658.71543,0.99652
3657.69087,0.99734
3656.66630,0.99800
3655.64174,0.99738
3654.61718,0.99652
3653.59261,0.99685
3652.56805,0.99821
3651.54349,0.99964
3650.51892,0.99960
3649.49436,0.99808
3648.46980,0.99777
3647.44523,0.99844
3646.42067,0.99761
3645.39611,0.99650
3644.37154,0.99690
3643.34698,0.99782
3642.32242,0.99817
3641.29785,0.99818
3640.27329,0.99813
3639.24873,0.99815
3638.22416,0.99842
3637.19960,0.99854
3636.17504,0.99846
3635.15047,0.99882
3634.12591,0.99933
3633.10135,0.99899
3632.07678,0.99826
3631.05222,0.99853
3630.02766,1.00017
3629.00310,1.00018
3627.97853,0.99677
3626.95397,0.99531
3625.92941,0.99634
3624.90484,0.99755
3623.88028,0.99806
3622.85572,0.99834
3621.83115,0.99861
3620.80659,0.99906
3619.78203,0.99943
3618.75746,0.99885
3617.73290,0.99758
3616.70834,0.99736
3615.68377,0.99805
3614.65921,0.99821
3613.63465,0.99778
3612.61008,0.99770
3611.58552,0.99774
3610.56096,0.99785
3609.53639,0.99824
3608.51183,0.99793
3607.48727,0.99744
3606.46270,0.99740
3605.43814,0.99789
3604.41358,0.99885
3603.38901,0.99927
3602.36445,0.99918
3601.33989,0.99949
3600.31532,0.99991
3599.29076,1.00006
3598.26620,1.00030
3597.24163,1.00069
3596.21707,1.00133
3595.19251,1.00164
3594.16794,1.00126
3593.14338,1.00111
3592.11882,1.00084
3591.09425,1.00023
3590.06969,1.00060
3589.04513,1.00192
3588.02056,1.00258
3586.99600,1.00215
3585.97144,1.00094
3584.94687,1.00019
3583.92231,1.00082
3582.89775,1.00155
3581.87318,1.00148
3580.84862,1.00147
3579.82406,1.00176
3578.79949,1.00182
3577.77493,1.00211
3576.75037,1.00269
3575.72581,1.00262
3574.70124,1.00199
3573.67668,1.00152
3572.65212,1.00155
3571.62755,1.00217
3570.60299,1.00261
3569.57843,1.00238
3568.55386,1.00224
3567.52930,1.00216
3566.50474,1.00141
3565.48017,1.00046
3564.45561,1.00014
3563.43105,1.00036
3562.40648,1.00039
3561.38192,1.00021
3560.35736,1.00018
3559.33279,1.00021
3558.30823,1.00014
3557.28367,1.00000
3556.25910,1.00023
3555.23454,1.00061
3554.20998,1.00095
3553.18541,1.00100
3552.16085,1.00049
3551.13629,0.99990
3550.11172,1.00012
3549.08716,1.00092
3548.06260,1.00186
3547.03803,1.00253
3546.01347,1.00216
3544.98891,1.00131
3543.96434,1.00101
3542.93978,1.00121
3541.91522,1.00173
3540.89065,1.00225
3539.86609,1.00228
3538.84153,1.00207
3537.81696,1.00213
3536.79240,1.00215
3535.76784,1.00204
3534.74327,1.00223
3533.71871,1.00248
3532.69415,1.00250
3531.66958,1.00276
3530.64502,1.00316
3529.62046,1.00335
3528.59589,1.00355
3527.57133,1.00369
3526.54677,1.00324
3525.52221,1.00246
3524.49764,1.00232
3523.47308,1.00277
3522.44852,1.00288
3521.42395,1.00252
3520.39939,1.00238
3519.37483,1.00255
3518.35026,1.00227
3517.32570,1.00142
3516.30114,1.00092
3515.27657,1.00129
3514.25201,1.00166
3513.22745,1.00126
3512.20288,1.00058
3511.17832,1.00056
3510.15376,1.00110
3509.12919,1.00106
3508.10463,1.00011
3507.08007,0.99936
3506.05550,0.99946
3505.03094,0.99988
3504.00638,1.00000
3502.98181,0.99969
3501.95725,0.99914
3500.93269,0.99922
3499.90812,0.99991
3498.88356,1.00038
3497.85900,1.00055
3496.83443,1.00069
3495.80987,1.00056
3494.78531,1.00033
3493.76074,1.00023
3492.73618,1.00041
3491.71162,1.00110
3490.68705,1.00187
3489.66249,1.00238
3488.63793,1.00267
3487.61336,1.00233
3486.58880,1.00154
3485.56424,1.00110
3484.53967,1.00128
3483.51511,1.00195
3482.49055,1.00212
3481.46598,1.00153
3480.44142,1.00150
3479.41686,1.00200
3478.39229,1.00211
3477.36773,1.00209
3476.34317,1.00219
3475.31860,1.00206
3474.29404,1.00168
3473.26948,1.00159
3472.24492,1.00194
3471.22035,1.00208
3470.19579,1.00168
3469.17123,1.00128
3468.14666,1.00150
3467.12210,1.00181
3466.09754,1.00158
3465.07297,1.00129
3464.04841,1.00140
3463.02385,1.00175
3461.99928,1.00195
3460.97472,1.00153
3459.95016,1.00090
3458.92559,1.00100
3457.90103,1.00149
3456.87647,1.00153
3455.85190,1.00137
3454.82734,1.00111
3453.80278,1.00047
3452.77821,1.00001
3451.75365,1.00014
3450.72909,1.00034
3449.70452,1.00027
3448.67996,1.00004
3447.65540,0.99995
3446.63083,1.00000
3445.60627,1.00014
3444.58171,0.99996
3443.55714,0.99989
3442.53258,1.00031
3441.50802,1.00086
3440.48345,1.00120
3439.45889,1.00145
3438.43433,1.00127
3437.40976,1.00053
3436.38520,1.00016
3435.36064,1.00074
3434.33607,1.00156
3433.31151,1.00216
3432.28695,1.00264
3431.26238,1.00235
3430.23782,1.00153
3429.21326,1.00147
3428.18869,1.00201
3427.16413,1.00240
3426.13957,1.00246
3425.11500,1.00248
3424.09044,1.00268
3423.06588,1.00277
3422.04131,1.00247
3421.01675,1.00229
3419.99219,1.00276
3418.96763,1.00319
3417.94306,1.00289
3416.91850,1.00234
3415.89394,1.00214
3414.86937,1.00214
3413.84481,1.00199
3412.82025,1.00186
3411.79568,1.00193
3410.77112,1.00188
3409.74656,1.00134
3408.72199,1.00056
3407.69743,1.00018
3406.67287,1.00014
3405.64830,1.00026
3404.62374,1.00076
3403.59918,1.00133
3402.57461,1.00150
3401.55005,1.00110
3400.52549,1.00045
3399.50092,1.00022
3398.47636,1.00054
3397.45180,1.00067
3396.42723,1.00020
3395.40267,0.99965
3394.37811,0.99966
3393.35354,1.00000
3392.32898,0.99981
3391.30442,0.99940
3390.27985,0.99938
3389.25529,0.99967
3388.23073,0.99996
3387.20616,1.00036
3386.18160,1.00095
3385.15704,1.00135
3384.13247,1.00130
3383.10791,1.00134
3382.08335,1.00184
3381.05878,1.00201
3380.03422,1.00165
3379.00966,1.00163
3377.98509,1.00195
3376.96053,1.00205
3375.93597,1.00201
3374.91140,1.00182
3373.88684,1.00137
3372.86228,1.00110
3371.83771,1.00138
3370.81315,1.00197
3369.78859,1.00208
3368.76403,1.00144
3367.73946,1.00071
3366.71490,1.00048
3365.69034,1.00107
3364.66577,1.00199
3363.64121,1.00221
3362.61665,1.00189
3361.59208,1.00172
3360.56752,1.00177
3359.54296,1.00156
3358.51839,1.00107
3357.49383,1.00105
3356.46927,1.00172
3355.44470,1.00233
3354.42014,1.00213
3353.39558,1.00154
3352.37101,1.00120
3351.34645,1.00101
3350.32189,1.00070
3349.29732,1.00041
3348.27276,1.00048
3347.24820,1.00068
3346.22363,1.00057
3345.19907,1.00029
3344.17451,1.00021
3343.14994,1.00031
3342.12538,1.00013
3341.10082,0.99958
3340.07625,0.99898
3339.05169,0.99887
3338.02713,0.99913
3337.00256,0.99923
3335.97800,0.99904
3334.95344,0.99907
3333.92887,0.99943
3332.90431,1.00000
3331.87975,1.00029
3330.85518,1.00013
3329.83062,0.99981
3328.80606,0.99981
3327.78149,1.00004
3326.75693,1.00014
3325.73237,1.00029
3324.70780,1.00058
3323.68324,1.00098
3322.65868,1.00120
3321.63411,1.00086
3320.60955,1.00056
3319.58499,1.00069
3318.56042,1.00072
3317.53586,1.00063
3316.51130,1.00092
3315.48674,1.00137
3314.46217,1.00176
3313.43761,1.00207
3312.41305,1.00203
3311.38848,1.00184
3310.36392,1.00188
3309.33936,1.00188
3308.31479,1.00152
3307.29023,1.00109
3306.26567,1.00120
3305.24110,1.00165
3304.21654,1.00162
3303.19198,1.00111
3302.16741,1.00087
3301.14285,1.00105
3300.11829,1.00073
3299.09372,1.00032
3298.06916,1.00049
3297.04460,1.00067
3296.02003,1.00070
3294.99547,1.00056
3293.97091,1.00029
3292.94634,1.00038
3291.92178,1.00059
3290.89722,1.00042
3289.87265,1.00017
3288.84809,0.99999
3287.82353,0.99978
3286.79896,0.99978
3285.77440,1.00005
3284.74984,1.00000
3283.72527,0.99973
3282.70071,0.99952
3281.67615,0.99930
3280.65158,0.99920
3279.62702,0.99946
3278.60246,0.99947
3277.57789,0.99958
3276.55333,0.99982
3275.52877,0.99949
3274.50420,0.99907
3273.47964,0.99928
3272.45508,0.99948
3271.43051,0.99938
3270.40595,0.99948
3269.38139,0.99993
3268.35682,1.00024
3267.33226,1.00017
3266.30770,1.00036
3265.28313,1.00100
3264.25857,1.00135
3263.23401,1.00109
3262.20945,1.00065
3261.18488,1.00063
3260.16032,1.00095
3259.13576,1.00081
3258.11119,1.00046
3257.08663,1.00050
3256.06207,1.00073
3255.03750,1.00118
3254.01294,1.00181
3252.98838,1.00224
3251.96381,1.00237
3250.93925,1.00251
3249.91469,1.00258
3248.89012,1.00231
3247.86556,1.00197
3246.84100,1.00180
3245.81643,1.00169
3244.79187,1.00157
3243.76731,1.00145
3242.74274,1.00157
3241.71818,1.00198
3240.69362,1.00210
3239.66905,1.00160
3238.64449,1.00106
3237.61993,1.00079
3236.59536,1.00040
3235.57080,1.00013
3234.54624,1.00026
3233.52167,1.00020
3232.49711,0.99981
3231.47255,0.99972
3230.44798,1.00005
3229.42342,1.00028
3228.39886,1.00024
3227.37429,1.00014
3226.34973,1.00000
3225.32517,0.99976
3224.30060,0.99919
3223.27604,0.99915
3222.25148,0.99958
3221.22691,0.99975
3220.20235,0.99968
3219.17779,0.99955
3218.15322,0.99977
3217.12866,1.00041
3216.10410,1.00042
3215.07953,1.00009
3214.05497,1.00072
3213.03041,1.00152
3212.00585,1.00154
3210.98128,1.00126
3209.95672,1.00094
3208.93216,1.00086
3207.90759,1.00117
3206.88303,1.00150
3205.85847,1.00178
3204.83390,1.00188
3203.80934,1.00158
3202.78478,1.00133
3201.76021,1.00138
3200.73565,1.00124
3199.71109,1.00098
3198.68652,1.00085
3197.66196,1.00073
3196.63740,1.00054
3195.61283,1.00027
3194.58827,1.00023
3193.56371,1.00080
3192.53914,1.00150
3191.51458,1.00144
3190.49002,1.00078
3189.46545,1.00048
3188.44089,1.00080
3187.41633,1.00132
3186.39176,1.00144
3185.36720,1.00116
3184.34264,1.00089
3183.31807,1.00077
3182.29351,1.00077
3181.26895,1.00064
3180.24438,1.00030
3179.21982,1.00018
3178.19526,1.00047
3177.17069,1.00089
3176.14613,1.00093
3175.12157,1.00065
3174.09700,1.00046
3173.07244,1.00023
3172.04788,0.99967
3171.02331,0.99934
3169.99875,1.00000
3168.97419,1.00097
3167.94962,1.00087
3166.92506,1.00032
3165.90050,1.00019
3164.87593,1.00035
3163.85137,1.00052
3162.82681,1.00067
3161.80224,1.00081
3160.77768,1.00111
3159.75312,1.00160
3158.72856,1.00175
3157.70399,1.00154
3156.67943,1.00151
3155.65487,1.00150
3154.63030,1.00133
3153.60574,1.00126
3152.58118,1.00124
3151.55661,1.00121
3150.53205,1.00130
3149.50749,1.00149
3148.48292,1.00160
3147.45836,1.00184
3146.43380,1.00235
3145.40923,1.00247
3144.38467,1.00206
3143.36011,1.00167
3142.33554,1.00149
3141.31098,1.00147
3140.28642,1.00144
3139.26185,1.00140
3138.23729,1.00172
3137.21273,1.00211
3136.18816,1.00189
3135.16360,1.00131
3134.13904,1.00110
3133.11447,1.00156
3132.08991,1.00182
3131.06535,1.00144
3130.04078,1.00116
3129.01622,1.00105
3127.99166,1.00074
3126.96709,1.00049
3125.94253,1.00031
3124.91797,1.00000
3123.89340,0.99988
3122.86884,0.99998
3121.84428,0.99996
3120.81971,0.99996
3119.79515,0.99996
3118.77059,0.99980
3117.74602,0.99949
3116.72146,0.99934
3115.69690,0.99916
3114.67233,0.99904
3113.64777,0.99932
3112.62321,0.99973
3111.59864,1.00020
3110.57408,1.00054
3109.54952,1.00067
3108.52495,1.00083
3107.50039,1.00115
3106.47583,1.00159
3105.45127,1.00189
3104.42670,1.00197
3103.40214,1.00214
3102.37758,1.00198
3101.35301,1.00136
3100.32845,1.00115
3099.30389,1.00147
3098.27932,1.00156
3097.25476,1.00131
3096.23020,1.00103
3095.20563,1.00103
3094.18107,1.00159
3093.15651,1.00205
3092.13194,1.00181
3091.10738,1.00157
3090.08282,1.00159
3089.05825,1.00127
3088.03369,1.00081
3087.00913,1.00071
3085.98456,1.00080
3084.96000,1.00080
3083.93544,1.00054
3082.91087,1.00033
3081.88631,1.00049
3080.86175,1.00075
3079.83718,1.00097
3078.81262,1.00117
3077.78806,1.00097
3076.76349,1.00043
3075.73893,1.00022
3074.71437,1.00031
3073.68980,1.00023
3072.66524,1.00028
3071.64068,1.00035
3070.61611,1.00004
3069.59155,0.99999
3068.56699,1.00022
3067.54242,1.00020
3066.51786,1.00011
3065.49330,1.00000
3064.46873,0.99977
3063.44417,0.99935
3062.41961,0.99911
3061.39504,0.99905
3060.37048,0.99900
3059.34592,0.99925
3058.32135,0.99978
3057.29679,0.99990
3056.27223,0.99970
3055.24767,0.99959
3054.22310,0.99997
3053.19854,1.00043
3052.17398,1.00036
3051.14941,1.00003
3050.12485,0.99983
3049.10029,0.99988
3048.07572,1.00015
3047.05116,1.00042
3046.02660,1.00064
3045.00203,1.00101
3043.97747,1.00142
3042.95291,1.00135
3041.92834,1.00090
3040.90378,1.00060
3039.87922,1.00040
3038.85465,1.00028
3037.83009,1.00069
3036.80553,1.00119
3035.78096,1.00104
3034.75640,1.00077
3033.73184,1.00089
3032.70727,1.00111
3031.68271,1.00101
3030.65815,1.00045
3029.63358,1.00016
3028.60902,1.00038
3027.58446,1.00051
3026.55989,1.00075
3025.53533,1.00128
3024.51077,1.00148
3023.48620,1.00091
3022.46164,1.00008
3021.43708,0.99999
3020.41251,1.00072
3019.38795,1.00138
3018.36339,1.00151
3017.33882,1.00132
3016.31426,1.00090
3015.28970,1.00053
3014.26513,1.00033
3013.24057,1.00017
3012.21601,1.00023
3011.19144,1.00034
3010.16688,1.00027
3009.14232,1.00014
3008.11775,0.99998
3007.09319,0.99991
3006.06863,0.99996
3005.04406,0.99992
3004.01950,0.99975
3002.99494,0.99983
3001.97038,0.99983
3000.94581,1.00010
2999.92125,1.00036
2998.89669,1.00031
2997.87212,1.00011
2996.84756,0.99994
2995.82300,1.00003
2994.79843,1.00000
2993.77387,0.99950
2992.74931,0.99842
2991.72474,0.99695
2990.70018,0.99516
2989.67562,0.99299
2988.65105,0.98998
2987.62649,0.98595
2986.60193,0.98130
2985.57736,0.97655
2984.55280,0.97149
2983.52824,0.96552
2982.50367,0.95851
2981.47911,0.95087
2980.45455,0.94317
2979.42998,0.93539
2978.40542,0.92717
2977.38086,0.91886
2976.35629,0.91096
2975.33173,0.90347
2974.30717,0.89671
2973.28260,0.89118
2972.25804,0.88658
2971.23348,0.88255
2970.20891,0.87932
2969.18435,0.87694
2968.15979,0.87484
2967.13522,0.87243
2966.11066,0.86954
2965.08610,0.86596
2964.06153,0.86153
2963.03697,0.85657
2962.01241,0.85171
2960.98784,0.84759
2959.96328,0.84464
2958.93872,0.84305
2957.91415,0.84335
2956.88959,0.84561
2955.86503,0.84903
2954.84046,0.85345
2953.81590,0.85972
2952.79134,0.86801
2951.76677,0.87738
2950.74221,0.88697
2949.71765,0.89632
2948.69309,0.90509
2947.66852,0.91310
2946.64396,0.92028
2945.61940,0.92678
2944.59483,0.93250
2943.57027,0.93748
2942.54571,0.94210
2941.52114,0.94634
2940.49658,0.95031
2939.47202,0.95418
2938.44745,0.95751
2937.42289,0.96025
2936.39833,0.96290
2935.37376,0.96490
2934.34920,0.96577
2933.32464,0.96602
2932.30007,0.96551
2931.27551,0.96366
2930.25095,0.96004
2929.22638,0.95449
2928.20182,0.94757
2927.17726,0.93964
2926.15269,0.93029
2925.12813,0.91964
2924.10357,0.90877
2923.07900,0.89832
2922.05444,0.88860
2921.02988,0.88002
2920.00531,0.87313
2918.98075,0.86881
2917.95619,0.86722
2916.93162,0.86806
2915.90706,0.87086
2914.88250,0.87507
2913.85793,0.88060
2912.83337,0.88669
2911.80881,0.89180
2910.78424,0.89543
2909.75968,0.89815
2908.73512,0.89979
2907.71055,0.90042
2906.68599,0.90068
2905.66143,0.90054
2904.63686,0.90014
2903.61230,0.89953
2902.58774,0.89835
2901.56317,0.89691
2900.53861,0.89599
2899.51405,0.89570
2898.48949,0.89569
2897.46492,0.89605
2896.44036,0.89703
2895.41580,0.89856
2894.39123,0.90099
2893.36667,0.90452
2892.34211,0.90853
2891.31754,0.91260
2890.29298,0.91676
2889.26842,0.92131
2888.24385,0.92618
2887.21929,0.93088
2886.19473,0.93538
2885.17016,0.93980
2884.14560,0.94416
2883.12104,0.94831
2882.09647,0.95203
2881.07191,0.95551
2880.04735,0.95885
2879.02278,0.96192
2877.99822,0.96440
2876.97366,0.96608
2875.94909,0.96712
2874.92453,0.96759
2873.89997,0.96746
2872.87540,0.96675
2871.85084,0.96553
2870.82628,0.96379
2869.80171,0.96141
2868.77715,0.95861
2867.75259,0.95542
2866.72802,0.95139
2865.70346,0.94691
2864.67890,0.94293
2863.65433,0.93979
2862.62977,0.93728
2861.60521,0.93531
2860.58064,0.93443
2859.55608,0.93486
2858.53152,0.93602
2857.50695,0.93781
2856.48239,0.94041
2855.45783,0.94360
2854.43326,0.94709
2853.40870,0.95058
2852.38414,0.95399
2851.35957,0.95754
2850.33501,0.96102
2849.31045,0.96433
2848.28588,0.96771
2847.26132,0.97091
2846.23676,0.97368
2845.21220,0.97635
2844.18763,0.97891
2843.16307,0.98118
2842.13851,0.98322
2841.11394,0.98487
2840.08938,0.98630
2839.06482,0.98781
2838.04025,0.98916
2837.01569,0.99035
2835.99113,0.99163
2834.96656,0.99285
2833.94200,0.99383
2832.91744,0.99457
2831.89287,0.99527
2830.86831,0.99597
2829.84375,0.99658
2828.81918,0.99705
2827.79462,0.99735
2826.77006,0.99763
2825.74549,0.99792
2824.72093,0.99802
2823.69637,0.99791
2822.67180,0.99765
2821.64724,0.99737
2820.62268,0.99737
2819.59811,0.99754
2818.57355,0.99736
2817.54899,0.99670
2816.52442,0.99598
2815.49986,0.99585
2814.47530,0.99625
2813.45073,0.99672
2812.42617,0.99701
2811.40161,0.99692
2810.37704,0.99658
2809.35248,0.99646
2808.32792,0.99665
2807.30335,0.99698
2806.27879,0.99749
2805.25423,0.99802
2804.22966,0.99839
2803.20510,0.99867
2802.18054,0.99897
2801.15597,0.99923
2800.13141,0.99940
2799.10685,0.99953
2798.08228,0.99957
2797.05772,0.99949
2796.03316,0.99961
2795.00859,1.00022
2793.98403,1.00069
2792.95947,1.00059
2791.93491,1.00052
2790.91034,1.00075
2789.88578,1.00077
2788.86122,1.00037
2787.83665,0.99992
2786.81209,0.99980
2785.78753,1.00005
2784.76296,1.00021
2783.73840,1.00009
2782.71384,1.00000
2781.68927,1.00029
2780.66471,1.00051
2779.64015,1.00074
2778.61558,1.00111
2777.59102,1.00118
2776.56646,1.00088
2775.54189,1.00064
2774.51733,1.00069
2773.49277,1.00081
2772.46820,1.00071
2771.44364,1.00060
2770.41908,1.00084
2769.39451,1.00105
2768.36995,1.00081
2767.34539,1.00075
2766.32082,1.00099
2765.29626,1.00098
2764.27170,1.00082
2763.24713,1.00051
2762.22257,1.00004
2761.19801,1.00002
2760.17344,1.00043
2759.14888,1.00078
2758.12432,1.00099
2757.09975,1.00108
2756.07519,1.00100
2755.05063,1.00090
2754.02606,1.00087
2753.00150,1.00079
2751.97694,1.00074
2750.95237,1.00058
2749.92781,1.00013
2748.90325,0.99989
2747.87868,0.99978
2746.85412,0.99962
2745.82956,0.99975
2744.80499,0.99998
2743.78043,1.00006
2742.75587,1.00000
2741.73131,0.99986
2740.70674,0.99969
2739.68218,0.99953
2738.65762,0.99926
2737.63305,0.99898
2736.60849,0.99893
2735.58393,0.99892
2734.55936,0.99879
2733.53480,0.99850
2732.51024,0.99787
2731.48567,0.99727
2730.46111,0.99703
2729.43655,0.99688
2728.41198,0.99691
2727.38742,0.99718
2726.36286,0.99726
2725.33829,0.99725
2724.31373,0.99745
2723.28917,0.99769
2722.26460,0.99803
2721.24004,0.99850
2720.21548,0.99872
2719.19091,0.99875
2718.16635,0.99905
2717.14179,0.99949
2716.11722,0.99981
2715.09266,1.00007
2714.06810,1.00018
2713.04353,1.00022
2712.01897,1.00046
2710.99441,1.00075
2709.96984,1.00081
2708.94528,1.00070
2707.92072,1.00060
2706.89615,1.00060
2705.87159,1.00060
2704.84703,1.00046
2703.82246,1.00047
2702.79790,1.00088
2701.77334,1.00113
2700.74877,1.00090
2699.72421,1.00047
2698.69965,1.00036
2697.67508,1.00044
2696.65052,1.00041
2695.62596,1.00039
2694.60139,1.00055
2693.57683,1.00053
2692.55227,1.00035
2691.52770,1.00028
2690.50314,1.00016
2689.47858,1.00005
2688.45402,1.00014
2687.42945,1.00010
2686.40489,0.99972
2685.38033,0.99942
2684.35576,0.99940
2683.33120,0.99939
2682.30664,0.99948
2681.28207,0.99972
2680.25751,0.99965
2679.23295,0.99937
2678.20838,0.99921
2677.18382,0.99930
2676.15926,0.99936
2675.13469,0.99928
2674.11013,0.99911
2673.08557,0.99896
2672.06100,0.99880
2671.03644,0.99877
2670.01188,0.99874
2668.98731,0.99843
2667.96275,0.99826
2666.93819,0.99825
2665.91362,0.99790
2664.88906,0.99763
2663.86450,0.99771
2662.83993,0.99751
2661.81537,0.99697
2660.79081,0.99681
2659.76624,0.99705
2658.74168,0.99724
2657.71712,0.99729
2656.69255,0.99738
2655.66799,0.99760
2654.64343,0.99772
2653.61886,0.99773
2652.59430,0.99786
2651.56974,0.99802
2650.54517,0.99821
2649.52061,0.99852
2648.49605,0.99853
2647.47148,0.99826
2646.44692,0.99828
2645.42236,0.99864
2644.39779,0.99883
2643.37323,0.99891
2642.34867,0.99921
2641.32410,0.99949
2640.29954,0.99963
2639.27498,0.99956
2638.25041,0.99935
2637.22585,0.99955
2636.20129,0.99981
2635.17673,0.99955
2634.15216,0.99924
2633.12760,0.99903
2632.10304,0.99870
2631.07847,0.99878
2630.05391,0.99929
2629.02935,0.99934
2628.00478,0.99909
2626.98022,0.99872
2625.95566,0.99829
2624.93109,0.99814
2623.90653,0.99849
2622.88197,0.99881
2621.85740,0.99869
2620.83284,0.99831
2619.80828,0.99810
2618.78371,0.99816
2617.75915,0.99824
2616.73459,0.99813
2615.71002,0.99783
2614.68546,0.99779
2613.66090,0.99839
2612.63633,0.99916
2611.61177,0.99938
2610.58721,0.99919
2609.56264,0.99900
2608.53808,0.99887
2607.51352,0.99877
2606.48895,0.99861
2605.46439,0.99888
2604.43983,0.99961
2603.41526,0.99982
2602.39070,0.99964
2601.36614,0.99967
2600.34157,0.99971
2599.31701,0.99957
2598.29245,0.99946
2597.26788,0.99954
2596.24332,0.99955
2595.21876,0.99935
2594.19419,0.99924
2593.16963,0.99952
2592.14507,1.00000
2591.12050,0.99987
2590.09594,0.99901
2589.07138,0.99872
2588.04681,0.99909
2587.02225,0.99932
2585.99769,0.99929
2584.97313,0.99918
2583.94856,0.99891
2582.92400,0.99871
2581.89944,0.99892
2580.87487,0.99928
2579.85031,0.99938
2578.82575,0.99932
2577.80118,0.99895
2576.77662,0.99854
2575.75206,0.99853
2574.72749,0.99858
2573.70293,0.99829
2572.67837,0.99826
2571.65380,0.99868
2570.62924,0.99900
2569.60468,0.99897
2568.58011,0.99850
2567.55555,0.99787
2566.53099,0.99782
2565.50642,0.99819
2564.48186,0.99851
2563.45730,0.99868
2562.43273,0.99869
2561.40817,0.99865
2560.38361,0.99881
2559.35904,0.99877
2558.33448,0.99835
2557.30992,0.99794
2556.28535,0.99790
2555.26079,0.99789
2554.23623,0.99774
2553.21166,0.99789
2552.18710,0.99833
2551.16254,0.99848
2550.13797,0.99815
2549.11341,0.99783
2548.08885,0.99787
2547.06428,0.99811
2546.03972,0.99830
2545.01516,0.99825
2543.99059,0.99812
2542.96603,0.99819
2541.94147,0.99852
2540.91690,0.99893
2539.89234,0.99916
2538.86778,0.99913
2537.84321,0.99929
2536.81865,0.99955
2535.79409,0.99945
2534.76952,0.99934
2533.74496,0.99921
2532.72040,0.99915
2531.69584,0.99957
2530.67127,0.99991
2529.64671,0.99966
2528.62215,0.99945
2527.59758,0.99957
2526.57302,0.99930
2525.54846,0.99880
2524.52389,0.99880
2523.49933,0.99922
2522.47477,0.99963
2521.45020,0.99972
2520.42564,0.99958
2519.40108,0.99947
2518.37651,0.99947
2517.35195,0.99888
2516.32739,0.99785
2515.30282,0.99764
2514.27826,0.99804
2513.25370,0.99800
2512.22913,0.99782
2511.20457,0.99817
2510.18001,0.99890
2509.15544,0.99933
2508.13088,0.99930
2507.10632,0.99899
2506.08175,0.99896
2505.05719,0.99891
2504.03263,0.99878
2503.00806,0.99888
2501.98350,0.99893
2500.95894,0.99877
2499.93437,0.99859
2498.90981,0.99866
2497.88525,0.99894
2496.86068,0.99889
2495.83612,0.99858
2494.81156,0.99868
2493.78699,0.99895
2492.76243,0.99865
2491.73787,0.99792
2490.71330,0.99740
2489.68874,0.99757
2488.66418,0.99815
2487.63961,0.99865
2486.61505,0.99882
2485.59049,0.99833
2484.56592,0.99764
2483.54136,0.99773
2482.51680,0.99841
2481.49223,0.99887
2480.46767,0.99917
2479.44311,0.99938
2478.41855,0.99895
2477.39398,0.99805
2476.36942,0.99765
2475.34486,0.99799
2474.32029,0.99858
2473.29573,0.99884
2472.27117,0.99864
2471.24660,0.99822
2470.22204,0.99806
2469.19748,0.99822
2468.17291,0.99837
2467.14835,0.99857
2466.12379,0.99905
2465.09922,0.99977
2464.07466,1.00000
2463.05010,0.99964
2462.02553,0.99928
2461.00097,0.99937
2459.97641,0.99926
2458.95184,0.99890
2457.92728,0.99888
2456.90272,0.99910
2455.87815,0.99946
2454.85359,0.99968
2453.82903,0.99951
2452.80446,0.99927
2451.77990,0.99919
2450.75534,0.99958
2449.73077,1.00028
2448.70621,1.00050
2447.68165,1.00045
2446.65708,1.00051
2445.63252,1.00043
2444.60796,1.00036
2443.58339,1.00065
2442.55883,1.00092
2441.53427,1.00097
2440.50970,1.00094
2439.48514,1.00098
2438.46058,1.00121
2437.43601,1.00116
2436.41145,1.00071
2435.38689,1.00056
2434.36232,1.00068
2433.33776,1.00046
2432.31320,1.00031
2431.28863,1.00031
2430.26407,1.00021
2429.23951,1.00036
2428.21495,1.00060
2427.19038,1.00040
2426.16582,0.99998
2425.14126,0.99986
2424.11669,0.99979
2423.09213,0.99943
2422.06757,0.99923
2421.04300,0.99931
2420.01844,0.99909
2418.99388,0.99871
2417.96931,0.99862
2416.94475,0.99870
2415.92019,0.99883
2414.89562,0.99910
2413.87106,0.99945
2412.84650,0.99980
2411.82193,0.99991
2410.79737,0.99972
2409.77281,0.99947
2408.74824,0.99921
2407.72368,0.99906
2406.69912,0.99901
2405.67455,0.99890
2404.64999,0.99900
2403.62543,0.99944
2402.60086,0.99984
2401.57630,1.00004
2400.55174,1.00004
2399.52717,0.99986
2398.50261,0.99982
2397.47805,1.00000
2396.45348,0.99996
2395.42892,0.99989
2394.40436,0.99973
2393.37979,0.99937
2392.35523,0.99910
2391.33067,0.99884
2390.30610,0.99850
2389.28154,0.99858
2388.25698,0.99909
2387.23241,0.99955
2386.20785,0.99959
2385.18329,0.99932
2384.15872,0.99934
2383.13416,0.99976
2382.10960,0.99980
2381.08503,0.99926
2380.06047,0.99905
2379.03591,0.99935
2378.01134,0.99957
2376.98678,0.99966
2375.96222,0.99990
2374.93766,1.00000
2373.91309,0.99971
2372.88853,0.99932
2371.86397,0.99918
2370.83940,0.99913
2369.81484,0.99907
2368.79028,0.99869
2367.76571,0.99859
2366.74115,0.99926
2365.71659,0.99951
2364.69202,0.99864
2363.66746,0.99749
2362.64290,0.99676
2361.61833,0.99617
2360.59377,0.99589
2359.56921,0.99628
2358.54464,0.99675
2357.52008,0.99682
2356.49552,0.99650
2355.47095,0.99593
2354.44639,0.99538
2353.42183,0.99534
2352.39726,0.99573
2351.37270,0.99570
2350.34814,0.99533
2349.32357,0.99568
2348.29901,0.99688
2347.27445,0.99806
2346.24988,0.99862
2345.22532,0.99863
2344.20076,0.99776
2343.17619,0.99674
2342.15163,0.99688
2341.12707,0.99720
2340.10250,0.99674
2339.07794,0.99609
2338.05338,0.99544
2337.02881,0.99520
2336.00425,0.99582
2334.97969,0.99640
2333.95512,0.99594
2332.93056,0.99502
2331.90600,0.99502
2330.88143,0.99562
2329.85687,0.99592
2328.83231,0.99592
2327.80774,0.99592
2326.78318,0.99618
2325.75862,0.99674
2324.73405,0.99742
2323.70949,0.99781
2322.68493,0.99784
2321.66037,0.99797
2320.63580,0.99828
2319.61124,0.99862
2318.58668,0.99874
2317.56211,0.99871
2316.53755,0.99928
2315.51299,1.00025
2314.48842,1.00026
2313.46386,0.99957
2312.43930,0.99935
2311.41473,0.99936
2310.39017,0.99895
2309.36561,0.99884
2308.34104,0.99896
2307.31648,0.99881
2306.29192,0.99901
2305.26735,0.99951
2304.24279,0.99980
2303.21823,0.99963
2302.19366,0.99905
2301.16910,0.99864
2300.14454,0.99880
2299.11997,0.99933
2298.09541,0.99987
2297.07085,0.99999
2296.04628,0.99984
2295.02172,0.99980
2293.99716,0.99954
2292.97259,0.99922
2291.94803,0.99928
2290.92347,0.99954
2289.89890,0.99972
2288.87434,0.99948
2287.84978,0.99935
2286.82521,0.99983
2285.80065,1.00000
2284.77609,0.99977
2283.75152,0.99950
2282.72696,0.99932
2281.70240,0.99938
2280.67783,0.99995
2279.65327,1.00029
2278.62871,0.99992
2277.60414,0.99963
2276.57958,0.99953
2275.55502,0.99941
2274.53045,0.99979
2273.50589,1.00022
2272.48133,1.00018
2271.45677,1.00003
2270.43220,0.99961
2269.40764,0.99885
2268.38308,0.99853
2267.35851,0.99883
2266.33395,0.99904
2265.30939,0.99860
2264.28482,0.99814
2263.26026,0.99821
2262.23570,0.99810
2261.21113,0.99732
2260.18657,0.99695
2259.16201,0.99773
2258.13744,0.99840
2257.11288,0.99825
2256.08832,0.99825
2255.06375,0.99839
2254.03919,0.99830
2253.01463,0.99860
2251.99006,0.99927
2250.96550,0.99983
2249.94094,1.00000
2248.91637,0.99961
2247.89181,0.99953
2246.86725,0.99984
2245.84268,0.99977
2244.81812,0.99961
2243.79356,0.99938
2242.76899,0.99924
2241.74443,0.99936
2240.71987,0.99952
2239.69530,0.99959
2238.67074,0.99909
2237.64618,0.99804
2236.62161,0.99753
2235.59705,0.99851
2234.57249,0.99962
2233.54792,0.99939
2232.52336,0.99887
2231.49880,0.99889
2230.47423,0.99901
2229.44967,0.99949
2228.42511,1.00000
2227.40054,0.99949
2226.37598,0.99863
2225.35142,0.99848
2224.32685,0.99853
2223.30229,0.99861
2222.27773,0.99855
2221.25316,0.99892
2220.22860,0.99995
2219.20404,0.99980
2218.17948,0.99849
2217.15491,0.99804
2216.13035,0.99825
2215.10579,0.99781
2214.08122,0.99714
2213.05666,0.99691
2212.03210,0.99665
2211.00753,0.99638
2209.98297,0.99683
2208.95841,0.99794
2207.93384,0.99894
2206.90928,0.99929
2205.88472,0.99886
2204.86015,0.99744
2203.83559,0.99516
2202.81103,0.99354
2201.78646,0.99460
2200.76190,0.99725
2199.73734,0.99812
2198.71277,0.99729
2197.68821,0.99737
2196.66365,0.99871
2195.63908,0.99993
2194.61452,1.00004
2193.58996,0.99882
2192.56539,0.99689
2191.54083,0.99642
2190.51627,0.99798
2189.49170,0.99944
2188.46714,0.99995
2187.44258,0.99970
2186.41801,0.99871
2185.39345,0.99786
2184.36889,0.99782
2183.34432,0.99843
2182.31976,0.99896
2181.29520,0.99878
2180.27063,0.99788
2179.24607,0.99631
2178.22151,0.99464
2177.19694,0.99469
2176.17238,0.99566
2175.14782,0.99536
2174.12325,0.99490
2173.09869,0.99587
2172.07413,0.99752
2171.04956,0.99786
2170.02500,0.99619
2169.00044,0.99462
2167.97587,0.99539
2166.95131,0.99685
2165.92675,0.99712
2164.90219,0.99676
2163.87762,0.99693
2162.85306,0.99873
2161.82850,1.00000
2160.80393,0.99978
2159.77937,0.99916
2158.75481,0.99834
2157.73024,0.99786
2156.70568,0.99897
2155.68112,0.99953
2154.65655,0.99879
2153.63199,0.99792
2152.60743,0.99751
2151.58286,0.99763
2150.55830,0.99732
2149.53374,0.99641
2148.50917,0.99484
2147.48461,0.99398
2146.46005,0.99505
2145.43548,0.99575
2144.41092,0.99533
2143.38636,0.99535
2142.36179,0.99513
2141.33723,0.99422
2140.31267,0.99390
2139.28810,0.99376
2138.26354,0.99317
2137.23898,0.99253
2136.21441,0.99233
2135.18985,0.99275
2134.16529,0.99321
2133.14072,0.99274
2132.11616,0.99160
2131.09160,0.99095
2130.06703,0.99116
2129.04247,0.99172
2128.01791,0.99186
2126.99334,0.99183
2125.96878,0.99192
2124.94422,0.99165
2123.91965,0.99165
2122.89509,0.99221
2121.87053,0.99218
2120.84596,0.99101
2119.82140,0.98977
2118.79684,0.98981
2117.77227,0.99044
2116.74771,0.99046
2115.72315,0.99041
2114.69859,0.99059
2113.67402,0.99071
2112.64946,0.99086
2111.62490,0.99082
2110.60033,0.99038
2109.57577,0.99039
2108.55121,0.99120
2107.52664,0.99158
2106.50208,0.99165
2105.47752,0.99220
2104.45295,0.99261
2103.42839,0.99263
2102.40383,0.99295
2101.37926,0.99356
2100.35470,0.99405
2099.33014,0.99435
2098.30557,0.99418
2097.28101,0.99352
2096.25645,0.99281
2095.23188,0.99265
2094.20732,0.99313
2093.18276,0.99412
2092.15819,0.99478
2091.13363,0.99423
2090.10907,0.99361
2089.08450,0.99394
2088.05994,0.99458
2087.03538,0.99478
2086.01081,0.99443
2084.98625,0.99483
2083.96169,0.99642
2082.93712,0.99672
2081.91256,0.99520
2080.88800,0.99444
2079.86343,0.99522
2078.83887,0.99650
2077.81431,0.99742
2076.78974,0.99767
2075.76518,0.99746
2074.74062,0.99690
2073.71605,0.99669
2072.69149,0.99718
2071.66693,0.99721
2070.64236,0.99670
2069.61780,0.99685
2068.59324,0.99806
2067.56867,0.99936
2066.54411,0.99918
2065.51955,0.99745
2064.49498,0.99563
2063.47042,0.99506
2062.44586,0.99551
2061.42130,0.99640
2060.39673,0.99753
2059.37217,0.99764
2058.34761,0.99705
2057.32304,0.99685
2056.29848,0.99678
2055.27392,0.99725
2054.24935,0.99758
2053.22479,0.99646
2052.20023,0.99594
2051.17566,0.99769
2050.15110,0.99902
2049.12654,0.99843
2048.10197,0.99845
2047.07741,0.99964
2046.05285,1.00000
2045.02828,0.99878
2044.00372,0.99751
2042.97916,0.99751
2041.95459,0.99705
2040.93003,0.99572
2039.90547,0.99570
2038.88090,0.99530
2037.85634,0.99336
2036.83178,0.99351
2035.80721,0.99604
2034.78265,0.99761
2033.75809,0.99737
2032.73352,0.99670
2031.70896,0.99589
2030.68440,0.99523
2029.65983,0.99649
2028.63527,0.99923
2027.61071,1.00046
2026.58614,0.99958
2025.56158,0.99837
2024.53702,0.99856
2023.51245,0.99776
2022.48789,0.99496
2021.46333,0.99413
2020.43876,0.99628
2019.41420,0.99732
2018.38964,0.99720
2017.36507,0.99855
2016.34051,0.99957
2015.31595,0.99892
2014.29138,0.99816
2013.26682,0.99764
2012.24226,0.99773
2011.21769,0.99834
2010.19313,0.99855
2009.16857,0.99881
2008.14401,0.99893
2007.11944,0.99823
2006.09488,0.99784
2005.07032,0.99837
2004.04575,0.99873
2003.02119,0.99860
2001.99663,0.99829
2000.97206,0.99725
1999.94750,0.99539
1998.92294,0.99415
1997.89837,0.99453
1996.87381,0.99520
1995.84925,0.99502
1994.82468,0.99428
1993.80012,0.99367
1992.77556,0.99410
1991.75099,0.99477
1990.72643,0.99491
1989.70187,0.99599
1988.67730,0.99668
1987.65274,0.99532
1986.62818,0.99487
1985.60361,0.99681
1984.57905,0.99876
1983.55449,0.99963
1982.52992,1.00000
1981.50536,0.99972
1980.48080,0.99910
1979.45623,0.99847
1978.43167,0.99817
1977.40711,0.99853
1976.38254,0.99889
1975.35798,0.99934
1974.33342,0.99883
1973.30885,0.99797
1972.28429,0.99857
1971.25973,0.99895
1970.23516,0.99873
1969.21060,0.99949
1968.18604,1.00053
1967.16147,1.00051
1966.13691,0.99958
1965.11235,0.99948
1964.08778,0.99968
1963.06322,0.99902
1962.03866,0.99792
1961.01409,0.99716
1959.98953,0.99670
1958.96497,0.99724
1957.94041,0.99859
1956.91584,0.99947
1955.89128,0.99981
1954.86672,1.00014
1953.84215,1.00043
1952.81759,0.99999
1951.79303,0.99903
1950.76846,0.99853
1949.74390,0.99894
1948.71934,0.99985
1947.69477,1.00000
1946.67021,0.99946
1945.64565,0.99925
1944.62108,0.99946
1943.59652,0.99981
1942.57196,0.99903
1941.54739,0.99720
1940.52283,0.99682
1939.49827,0.99768
1938.47370,0.99787
1937.44914,0.99772
1936.42458,0.99840
1935.40001,0.99906
1934.37545,0.99890
1933.35089,0.99879
1932.32632,0.99891
1931.30176,0.99876
1930.27720,0.99893
1929.25263,0.99958
1928.22807,0.99990
1927.20351,0.99981
1926.17894,0.99939
1925.15438,0.99868
1924.12982,0.99844
1923.10525,0.99881
1922.08069,0.99915
1921.05613,0.99940
1920.03156,0.99979
1919.00700,1.00034
1917.98244,1.00041
1916.95787,0.99989
1915.93331,1.00006
1914.90875,1.00071
1913.88418,1.00078
1912.85962,1.00067
1911.83506,1.00109
1910.81049,1.00116
1909.78593,1.00008
1908.76137,0.99957
1907.73680,0.99998
1906.71224,0.99993
1905.68768,0.99967
1904.66312,0.99963
1903.63855,0.99969
1902.61399,0.99969
1901.58943,0.99945
1900.56486,0.99901
1899.54030,0.99885
1898.51574,0.99920
1897.49117,0.99965
1896.46661,1.00000
1895.44205,1.00006
1894.41748,0.99994
1893.39292,1.00000
1892.36836,0.99985
1891.34379,0.99941
1890.31923,0.99936
1889.29467,0.99900
1888.27010,0.99828
1887.24554,0.99827
1886.22098,0.99850
1885.19641,0.99830
1884.17185,0.99816
1883.14729,0.99850
1882.12272,0.99879
1881.09816,0.99853
1880.07360,0.99809
1879.04903,0.99780
1878.02447,0.99753
1876.99991,0.99746
1875.97534,0.99763
1874.95078,0.99749
1873.92622,0.99720
1872.90165,0.99727
1871.87709,0.99756
1870.85253,0.99812
1869.82796,0.99880
1868.80340,0.99818
1867.77884,0.99684
1866.75427,0.99660
1865.72971,0.99679
1864.70515,0.99681
1863.68058,0.99735
1862.65602,0.99840
1861.63146,0.99880
1860.60689,0.99848
1859.58233,0.99858
1858.55777,0.99913
1857.53320,0.99937
1856.50864,0.99927
1855.48408,0.99935
1854.45951,0.99968
1853.43495,0.99964
1852.41039,0.99894
1851.38583,0.99848
1850.36126,0.99904
1849.33670,0.99975
1848.31214,0.99966
1847.28757,0.99936
1846.26301,1.00000
1845.23845,1.00136
1844.21388,1.00061
1843.18932,0.99790
1842.16476,0.99736
1841.14019,0.99808
1840.11563,0.99834
1839.09107,0.99841
1838.06650,0.99837
1837.04194,0.99808
1836.01738,0.99815
1834.99281,0.99850
1833.96825,0.99867
1832.94369,0.99891
1831.91912,0.99944
1830.89456,1.00000
1829.87000,0.99971
1828.84543,0.99842
1827.82087,0.99833
1826.79631,0.99935
1825.77174,1.00008
1824.74718,0.99972
1823.72262,0.99943
1822.69805,0.99962
1821.67349,0.99977
1820.64893,1.00016
1819.62436,1.00046
1818.59980,1.00056
1817.57524,1.00070
1816.55067,1.00061
1815.52611,1.00033
1814.50155,1.00033
1813.47698,1.00049
1812.45242,1.00078
1811.42786,1.00083
1810.40329,0.99987
1809.37873,0.99920
1808.35417,0.99971
1807.32960,1.00002
1806.30504,0.99981
1805.28048,0.99977
1804.25591,0.99997
1803.23135,1.00028
1802.20679,1.00027
1801.18223,0.99999
1800.15766,1.00001
1799.13310,0.99978
1798.10854,0.99908
1797.08397,0.99893
1796.05941,0.99940
1795.03485,0.99986
1794.01028,1.00049
1792.98572,1.00064
1791.96116,0.99923
1790.93659,0.99805
1789.91203,0.99799
1788.88747,0.99854
1787.86290,0.99909
1786.83834,0.99934
1785.81378,0.99978
1784.78921,0.99986
1783.76465,0.99903
1782.74009,0.99871
1781.71552,0.99920
1780.69096,0.99926
1779.66640,0.99878
1778.64183,0.99879
1777.61727,0.99908
1776.59271,0.99924
1775.56814,0.99924
1774.54358,0.99954
1773.51902,1.00055
1772.49445,1.00054
1771.46989,0.99817
1770.44533,0.99703
1769.42076,0.99813
1768.39620,0.99929
1767.37164,0.99851
1766.34707,0.99787
1765.32251,0.99849
1764.29795,0.99934
1763.27338,1.00045
1762.24882,1.00106
1761.22426,0.99973
1760.19969,0.99903
1759.17513,0.99996
1758.15057,1.00086
1757.12600,1.00080
1756.10144,0.99987
1755.07688,0.99952
1754.05231,0.99999
1753.02775,1.00084
1752.00319,1.00167
1750.97862,1.00086
1749.95406,0.99956
1748.92950,0.99975
1747.90494,0.99977
1746.88037,0.99935
1745.85581,0.99960
1744.83125,1.00042
1743.80668,1.00086
1742.78212,1.00028
1741.75756,1.00024
1740.73299,1.00130
1739.70843,1.00095
1738.68387,0.99908
1737.65930,0.99857
1736.63474,0.99936
1735.61018,1.00132
1734.58561,1.00258
1733.56105,0.99880
1732.53649,0.99614
1731.51192,0.99714
1730.48736,0.99848
1729.46280,0.99835
1728.43823,0.99787
1727.41367,0.99811
1726.38911,0.99835
1725.36454,0.99835
1724.33998,0.99828
1723.31542,0.99795
1722.29085,0.99769
1721.26629,0.99793
1720.24173,0.99869
1719.21716,1.00000
1718.19260,1.00001
1717.16804,0.99710
1716.14347,0.99609
1715.11891,0.99687
1714.09435,0.99647
1713.06978,0.99590
1712.04522,0.99646
1711.02066,0.99722
1709.99609,0.99722
1708.97153,0.99701
1707.94697,0.99769
1706.92240,0.99837
1705.89784,0.99792
1704.87328,0.99698
1703.84871,0.99630
1702.82415,0.99679
1701.79959,0.99925
1700.77502,1.00141
1699.75046,0.99660
1698.72590,0.99374
1697.70133,0.99581
1696.67677,0.99852
1695.65221,0.99747
1694.62765,0.99455
1693.60308,0.99467
1692.57852,0.99574
1691.55396,0.99633
1690.52939,0.99655
1689.50483,0.99665
1688.48027,0.99686
1687.45570,0.99707
1686.43114,0.99822
1685.40658,1.00080
1684.38201,1.00027
1683.35745,0.99475
1682.33289,0.99346
1681.30832,0.99510
1680.28376,0.99625
1679.25920,0.99619
1678.23463,0.99629
1677.21007,0.99713
1676.18551,0.99839
1675.16094,0.99730
1674.13638,0.99439
1673.11182,0.99445
1672.08725,0.99596
1671.06269,0.99676
1670.03813,0.99712
1669.01356,0.99618
1667.98900,0.99439
1666.96444,0.99413
1665.93987,0.99467
1664.91531,0.99537
1663.89075,0.99641
1662.86618,0.99622
1661.84162,0.99432
1660.81706,0.99361
1659.79249,0.99392
1658.76793,0.99415
1657.74337,0.99441
1656.71880,0.99455
1655.69424,0.99530
1654.66968,0.99771
1653.64511,1.00000
1652.62055,0.99410
1651.59599,0.98917
1650.57142,0.99036
1649.54686,0.99296
1648.52230,0.99500
1647.49773,0.99535
1646.47317,0.99354
1645.44861,0.99063
1644.42405,0.98945
1643.39948,0.99007
1642.37492,0.99056
1641.35036,0.99035
1640.32579,0.99014
1639.30123,0.99033
1638.27667,0.99087
1637.25210,0.99177
1636.22754,0.99318
1635.20298,0.99161
1634.17841,0.98852
1633.15385,0.98900
1632.12929,0.99061
1631.10472,0.99149
1630.08016,0.99229
1629.05560,0.99340
1628.03103,0.99380
1627.00647,0.99330
1625.98191,0.99367
1624.95734,0.99521
1623.93278,0.99609
1622.90822,0.99474
1621.88365,0.99382
1620.85909,0.99448
1619.83453,0.99506
1618.80996,0.99561
1617.78540,0.99717
1616.76084,0.99711
1615.73627,0.99409
1614.71171,0.99355
1613.68715,0.99451
1612.66258,0.99478
1611.63802,0.99462
1610.61346,0.99456
1609.58889,0.99455
1608.56433,0.99449
1607.53977,0.99436
1606.51520,0.99394
1605.49064,0.99336
1604.46608,0.99295
1603.44151,0.99258
1602.41695,0.99211
1601.39239,0.99163
1600.36782,0.99119
1599.34326,0.99079
1598.31870,0.99041
1597.29413,0.99003
1596.26957,0.98978
1595.24501,0.98975
1594.22044,0.98964
1593.19588,0.98931
1592.17132,0.98905
1591.14676,0.98897
1590.12219,0.98885
1589.09763,0.98861
1588.07307,0.98843
1587.04850,0.98831
1586.02394,0.98817
1584.99938,0.98831
1583.97481,0.98864
1582.95025,0.98882
1581.92569,0.98917
1580.90112,0.98964
1579.87656,0.98986
1578.85200,0.99025
1577.82743,0.99156
1576.80287,0.99306
1575.77831,0.99120
1574.75374,0.98896
1573.72918,0.98970
1572.70462,0.99088
1571.68005,0.99171
1570.65549,0.99302
1569.63093,0.99319
1568.60636,0.99142
1567.58180,0.99130
1566.55724,0.99278
1565.53267,0.99395
1564.50811,0.99375
1563.48355,0.99329
1562.45898,0.99404
1561.43442,0.99622
1560.40986,0.99919
1559.38529,1.00000
1558.36073,0.99690
1557.33617,0.99389
1556.31160,0.99404
1555.28704,0.99621
1554.26248,0.99694
1553.23791,0.99556
1552.21335,0.99573
1551.18879,0.99704
1550.16422,0.99729
1549.13966,0.99639
1548.11510,0.99634
1547.09053,0.99746
1546.06597,0.99877
1545.04141,0.99896
1544.01684,0.99855
1542.99228,0.99938
1541.96772,0.99992
1540.94315,0.99974
1539.91859,0.99994
1538.89403,0.99748
1537.86947,0.99564
1536.84490,0.99649
1535.82034,0.99812
1534.79578,0.99960
1533.77121,0.99961
1532.74665,0.99761
1531.72209,0.99692
1530.69752,0.99758
1529.67296,0.99836
1528.64840,0.99906
1527.62383,0.99913
1526.59927,0.99884
1525.57471,0.99835
1524.55014,0.99778
1523.52558,0.99837
1522.50102,0.99978
1521.47645,0.99957
1520.45189,0.99714
1519.42733,0.99619
1518.40276,0.99745
1517.37820,0.99855
1516.35364,0.99749
1515.32907,0.99662
1514.30451,0.99665
1513.27995,0.99696
1512.25538,0.99694
1511.23082,0.99640
1510.20626,0.99637
1509.18169,0.99701
1508.15713,0.99819
1507.13257,0.99919
1506.10800,0.99737
1505.08344,0.99486
1504.05888,0.99499
1503.03431,0.99622
1502.00975,0.99718
1500.98519,0.99771
1499.96062,0.99858
1498.93606,0.99896
1497.91150,0.99880
1496.88693,0.99926
1495.86237,0.99855
1494.83781,0.99732
1493.81324,0.99778
1492.78868,0.99882
1491.76412,0.99985
1490.73955,1.00048
1489.71499,0.99971
1488.69043,0.99912
1487.66587,0.99938
1486.64130,0.99897
1485.61674,0.99838
1484.59218,0.99867
1483.56761,0.99919
1482.54305,0.99963
1481.51849,0.99988
1480.49392,0.99969
1479.46936,0.99956
1478.44480,1.00003
1477.42023,1.00110
1476.39567,1.00155
1475.37111,1.00113
1474.34654,1.00147
1473.32198,1.00202
1472.29742,1.00144
1471.27285,1.00057
1470.24829,1.00116
1469.22373,1.00221
1468.19916,1.00259
1467.17460,1.00256
1466.15004,1.00249
1465.12547,1.00053
1464.10091,0.99583
1463.07635,0.99123
1462.05178,0.98623
1461.02722,0.97926
1460.00266,0.97074
1458.97809,0.95980
1457.95353,0.94490
1456.92897,0.91880
1455.90440,0.88597
1454.87984,0.86040
1453.85528,0.83615
1452.83071,0.80965
1451.80615,0.78145
1450.78159,0.75513
1449.75702,0.73433
1448.73246,0.71731
1447.70790,0.70142
1446.68333,0.68945
1445.65877,0.68328
1444.63421,0.67968
1443.60964,0.67772
1442.58508,0.67774
1441.56052,0.68014
1440.53595,0.68562
1439.51139,0.69514
1438.48683,0.70876
1437.46226,0.72748
1436.43770,0.75435
1435.41314,0.77957
1434.38858,0.80110
1433.36401,0.82301
1432.33945,0.84306
1431.31489,0.85972
1430.29032,0.87420
1429.26576,0.88667
1428.24120,0.89700
1427.21663,0.90621
1426.19207,0.91396
1425.16751,0.92013
1424.14294,0.92436
1423.11838,0.92618
1422.09382,0.92682
1421.06925,0.92744
1420.04469,0.92634
1419.02013,0.91932
1417.99556,0.90999
1416.97100,0.90157
1415.94644,0.89151
1414.92187,0.88007
1413.89731,0.86833
1412.87275,0.85696
1411.84818,0.84671
1410.82362,0.83883
1409.79906,0.83484
1408.77449,0.83501
1407.74993,0.83867
1406.72537,0.84493
1405.70080,0.85248
1404.67624,0.85958
1403.65168,0.86457
1402.62711,0.86728
1401.60255,0.86767
1400.57799,0.86618
1399.55342,0.86199
1398.52886,0.85414
1397.50430,0.84576
1396.47973,0.83844
1395.45517,0.83022
1394.43061,0.81946
1393.40604,0.80992
1392.38148,0.80465
1391.35692,0.80228
1390.33235,0.80257
1389.30779,0.80650
1388.28323,0.81469
1387.25866,0.82723
1386.23410,0.84176
1385.20954,0.85638
1384.18497,0.86979
1383.16041,0.87887
1382.13585,0.88026
1381.11129,0.87167
1380.08672,0.85247
1379.06216,0.82368
1378.03760,0.78782
1377.01303,0.74989
1375.98847,0.71474
1374.96391,0.68345
1373.93934,0.65772
1372.91478,0.64242
1371.89022,0.63960
1370.86565,0.64801
1369.84109,0.66717
1368.81653,0.69668
1367.79196,0.73344
1366.76740,0.77172
1365.74284,0.80746
1364.71827,0.83783
1363.69371,0.86298
1362.66915,0.88343
1361.64458,0.89876
1360.62002,0.91102
1359.59546,0.92114
1358.57089,0.92960
1357.54633,0.93692
1356.52177,0.94298
1355.49720,0.94811
1354.47264,0.95275
1353.44808,0.95714
1352.42351,0.96117
1351.39895,0.96465
1350.37439,0.96758
1349.34982,0.97038
1348.32526,0.97316
1347.30070,0.97571
1346.27613,0.97792
1345.25157,0.97989
1344.22701,0.98181
1343.20244,0.98371
1342.17788,0.98556
1341.15332,0.98731
1340.12875,0.98879
1339.10419,0.98975
1338.07963,0.99050
1337.05506,0.99134
1336.03050,0.99223
1335.00594,0.99340
1333.98137,0.99488
1332.95681,0.99631
1331.93225,0.99756
1330.90769,0.99859
1329.88312,0.99932
1328.85856,0.99972
1327.83400,0.99985
1326.80943,1.00000
1325.78487,1.00004
1324.76031,0.99976
1323.73574,0.99908
1322.71118,0.99769
1321.68662,0.99548
1320.66205,0.99260
1319.63749,0.98929
1318.61293,0.98550
1317.58836,0.98095
1316.56380,0.97579
1315.53924,0.97059
1314.51467,0.96559
1313.49011,0.96061
1312.46555,0.95558
1311.44098,0.95084
1310.41642,0.94665
1309.39186,0.94288
1308.36729,0.93919
1307.34273,0.93513
1306.31817,0.93037
1305.29360,0.92413
1304.26904,0.91557
1303.24448,0.90456
1302.21991,0.89130
1301.19535,0.87603
1300.17079,0.85897
1299.14622,0.84089
1298.12166,0.82331
1297.09710,0.80800
1296.07253,0.79683
1295.04797,0.79155
1294.02341,0.79313
1292.99884,0.80185
1291.97428,0.81688
1290.94972,0.83594
1289.92515,0.85664
1288.90059,0.87755
1287.87603,0.89765
1286.85146,0.91564
1285.82690,0.93076
1284.80234,0.94315
1283.77777,0.95316
1282.75321,0.96113
1281.72865,0.96741
1280.70408,0.97217
1279.67952,0.97544
1278.65496,0.97760
1277.63040,0.97906
1276.60583,0.97979
1275.58127,0.97943
1274.55671,0.97803
1273.53214,0.97605
1272.50758,0.97336
1271.48302,0.96958
1270.45845,0.96497
1269.43389,0.95975
1268.40933,0.95395
1267.38476,0.94777
1266.36020,0.94148
1265.33564,0.93539
1264.31107,0.92957
1263.28651,0.92386
1262.26195,0.91821
1261.23738,0.91245
1260.21282,0.90643
1259.18826,0.90037
1258.16369,0.89403
1257.13913,0.88712
1256.11457,0.88005
1255.09000,0.87318
1254.06544,0.86687
1253.04088,0.86130
1252.01631,0.85626
1250.99175,0.85156
1249.96719,0.84731
1248.94262,0.84372
1247.91806,0.84066
1246.89350,0.83821
1245.86893,0.83669
1244.84437,0.83594
1243.81981,0.83562
1242.79524,0.83566
1241.77068,0.83616
1240.74612,0.83710
1239.72155,0.83807
1238.69699,0.83853
1237.67243,0.83796
1236.64786,0.83609
1235.62330,0.83308
1234.59874,0.82936
1233.57417,0.82520
1232.54961,0.82106
1231.52505,0.81786
1230.50048,0.81604
1229.47592,0.81533
1228.45136,0.81533
1227.42680,0.81611
1226.40223,0.81777
1225.37767,0.81989
1224.35311,0.82188
1223.32854,0.82391
1222.30398,0.82635
1221.27942,0.82945
1220.25485,0.83360
1219.23029,0.83900
1218.20573,0.84554
1217.18116,0.85315
1216.15660,0.86177
1215.13204,0.87087
1214.10747,0.87994
1213.08291,0.88899
1212.05835,0.89804
1211.03378,0.90700
1210.00922,0.91574
1208.98466,0.92416
1207.96009,0.93245
1206.93553,0.94057
1205.91097,0.94814
1204.88640,0.95483
1203.86184,0.96054
1202.83728,0.96542
1201.81271,0.96964
1200.78815,0.97325
1199.76359,0.97635
1198.73902,0.97894
1197.71446,0.98079
1196.68990,0.98169
1195.66533,0.98180
1194.64077,0.98104
1193.61621,0.97857
1192.59164,0.97380
1191.56708,0.96683
1190.54252,0.95748
1189.51795,0.94552
1188.49339,0.93099
1187.46883,0.91420
1186.44426,0.89600
1185.41970,0.87755
1184.39514,0.85994
1183.37057,0.84468
1182.34601,0.83288
1181.32145,0.82444
1180.29688,0.81901
1179.27232,0.81658
1178.24776,0.81672
1177.22319,0.81863
1176.19863,0.82180
1175.17407,0.82607
1174.14951,0.83135
1173.12494,0.83745
1172.10038,0.84438
1171.07582,0.85247
1170.05125,0.86149
1169.02669,0.87065
1168.00213,0.87953
1166.97756,0.88811
1165.95300,0.89630
1164.92844,0.90369
1163.90387,0.90980
1162.87931,0.91492
1161.85475,0.91960
1160.83018,0.92393
1159.80562,0.92810
1158.78106,0.93228
1157.75649,0.93654
1156.73193,0.94104
1155.70737,0.94563
1154.68280,0.95009
1153.65824,0.95456
1152.63368,0.95903
1151.60911,0.96331
1150.58455,0.96716
1149.55999,0.97003
1148.53542,0.97213
1147.51086,0.97413
1146.48630,0.97581
1145.46173,0.97698
1144.43717,0.97799
1143.41261,0.97892
1142.38804,0.97982
1141.36348,0.98104
1140.33892,0.98262
1139.31435,0.98434
1138.28979,0.98622
1137.26523,0.98830
1136.24066,0.99046
1135.21610,0.99251
1134.19154,0.99443
1133.16697,0.99625
1132.14241,0.99777
1131.11785,0.99882
1130.09328,0.99937
1129.06872,0.99952
1128.04416,0.99954
1127.01959,0.99981
1125.99503,1.00000
1124.97047,1.00009
1123.94590,0.99904
1122.92134,0.99616
1121.89678,0.99105
1120.87222,0.98291
1119.84765,0.97090
1118.82309,0.95472
1117.79853,0.93408
1116.77396,0.90928
1115.74940,0.88171
1114.72484,0.85345
1113.70027,0.82650
1112.67571,0.80202
1111.65115,0.78055
1110.62658,0.76225
1109.60202,0.74695
1108.57746,0.73424
1107.55289,0.72364
1106.52833,0.71490
1105.50377,0.70812
1104.47920,0.70363
1103.45464,0.70181
1102.43008,0.70298
1101.40551,0.70722
1100.38095,0.71465
1099.35639,0.72564
1098.33182,0.73993
1097.30726,0.75658
1096.28270,0.77482
1095.25813,0.79409
1094.23357,0.81324
1093.20901,0.83110
1092.18444,0.84677
1091.15988,0.85921
1090.13532,0.86739
1089.11075,0.87056
1088.08619,0.86783
1087.06163,0.85854
1086.03706,0.84278
1085.01250,0.82130
1083.98794,0.79520
1082.96337,0.76559
1081.93881,0.73344
1080.91425,0.69980
1079.88968,0.66552
1078.86512,0.63152
1077.84056,0.59824
1076.81599,0.56574
1075.79143,0.53438
1074.76687,0.50462
1073.74230,0.47655
1072.71774,0.45012
1071.69318,0.42522
1070.66862,0.40162
1069.64405,0.37923
1068.61949,0.35806
1067.59493,0.33817
1066.57036,0.31995
1065.54580,0.30341
1064.52124,0.28822
1063.49667,0.27481
1062.47211,0.26359
1061.44755,0.25455
1060.42298,0.24763
1059.39842,0.24248
1058.37386,0.23902
1057.34929,0.23746
1056.32473,0.23766
1055.30017,0.23932
1054.27560,0.24224
1053.25104,0.24596
1052.22648,0.24938
1051.20191,0.25110
1050.17735,0.25004
1049.15279,0.24551
1048.12822,0.23731
1047.10366,0.22593
1046.07910,0.21234
1045.05453,0.19785
1044.02997,0.18400
1043.00541,0.17224
1041.98084,0.16345
1040.95628,0.15812
1039.93172,0.15675
1038.90715,0.15920
1037.88259,0.16423
1036.85803,0.17019
1035.83346,0.17604
1034.80890,0.18127
1033.78434,0.18520
1032.75977,0.18774
1031.73521,0.18976
1030.71065,0.19208
1029.68608,0.19538
1028.66152,0.20023
1027.63696,0.20685
1026.61239,0.21540
1025.58783,0.22634
1024.56327,0.23984
1023.53870,0.25588
1022.51414,0.27451
1021.48958,0.29519
1020.46501,0.31733
1019.44045,0.34063
1018.41589,0.36460
1017.39133,0.38839
1016.36676,0.41110
1015.34220,0.43211
1014.31764,0.45087
1013.29307,0.46643
1012.26851,0.47801
1011.24395,0.48571
1010.21938,0.48957
1009.19482,0.48908
1008.17026,0.48464
1007.14569,0.47729
1006.12113,0.46766
1005.09657,0.45662
1004.07200,0.44548
1003.04744,0.43528
1002.02288,0.42678
1000.99831,0.42075
999.97375,0.41790
998.94919,0.41845
997.92462,0.42219
996.90006,0.42849
995.87550,0.43645
994.85093,0.44515
993.82637,0.45385
992.80181,0.46197
991.77724,0.46928
990.75268,0.47564
989.72812,0.48095
988.70355,0.48552
987.67899,0.48997
986.65443,0.49558
985.62986,0.50348
984.60530,0.51437
983.58074,0.52946
982.55617,0.54899
981.53161,0.57166
980.50705,0.59588
979.48248,0.62001
978.45792,0.64287
977.43336,0.66387
976.40879,0.68266
975.38423,0.69948
974.35967,0.71456
973.33510,0.72807
972.31054,0.74058
971.28598,0.75248
970.26141,0.76351
969.23685,0.77350
968.21229,0.78266
967.18772,0.79128
966.16316,0.79984
965.13860,0.80824
964.11404,0.81575
963.08947,0.82280
962.06491,0.83030
961.04035,0.83759
960.01578,0.84419
958.99122,0.85077
957.96666,0.85726
956.94209,0.86341
955.91753,0.86964
954.89297,0.87563
953.86840,0.88105
952.84384,0.88620
951.81928,0.89123
950.79471,0.89630
949.77015,0.90139
948.74559,0.90601
947.72102,0.91030
946.69646,0.91457
945.67190,0.91873
944.64733,0.92296
943.62277,0.92710
942.59821,0.93072
941.57364,0.93428
940.54908,0.93807
939.52452,0.94184
938.49995,0.94562
937.47539,0.94940
936.45083,0.95291
935.42626,0.95641
934.40170,0.96025
933.37714,0.96417
932.35257,0.96803
931.32801,0.97181
930.30345,0.97535
929.27888,0.97905
928.25432,0.98291
927.22976,0.98612
926.20519,0.98862
925.18063,0.99105
924.15607,0.99343
923.13150,0.99562
922.10694,0.99749
921.08238,0.99874
920.05781,0.99937
919.03325,0.99960
918.00869,0.99980
916.98412,1.00000
915.95956,1.00023
914.93500,0.99973
913.91044,0.99877
912.88587,0.99751
911.86131,0.99574
910.83675,0.99387
909.81218,0.99218
908.78762,0.99037
907.76306,0.98821
906.73849,0.98571
905.71393,0.98293
904.68937,0.98008
903.66480,0.97738
902.64024,0.97499
901.61568,0.97290
900.59111,0.97081
899.56655,0.96879
898.54199,0.96714
897.51742,0.96542
896.49286,0.96358
895.46830,0.96200
894.44373,0.95991
893.41917,0.95668
892.39461,0.95283
891.37004,0.94888
890.34548,0.94503
889.32092,0.94087
888.29635,0.93576
887.27179,0.92996
886.24723,0.92387
885.22266,0.91756
884.19810,0.91110
883.17354,0.90403
882.14897,0.89602
881.12441,0.88746
880.09985,0.87858
879.07528,0.86941
878.05072,0.86058
877.02616,0.85224
876.00159,0.84416
874.97703,0.83667
873.95247,0.82931
872.92790,0.82175
871.90334,0.81547
870.87878,0.81147
869.85421,0.80912
868.82965,0.80807
867.80509,0.80856
866.78052,0.81088
865.75596,0.81530
864.73140,0.82193
863.70683,0.83081
862.68227,0.84134
861.65771,0.85252
860.63315,0.86381
859.60858,0.87468
858.58402,0.88442
857.55946,0.89254
856.53489,0.89824
855.51033,0.90051
854.48577,0.89881
853.46120,0.89226
852.43664,0.87988
851.41208,0.86257
850.38751,0.84147
849.36295,0.81729
848.33839,0.79278
847.31382,0.77057
846.28926,0.75155
845.26470,0.73672
844.24013,0.72763
843.21557,0.72540
842.19101,0.72945
841.16644,0.73762
840.14188,0.74843
839.11732,0.76107
838.09275,0.77316
837.06819,0.78287
836.04363,0.79024
835.01906,0.79399
833.99450,0.79228
832.96994,0.78533
831.94537,0.77408
830.92081,0.75836
829.89625,0.73817
828.87168,0.71481
827.84712,0.68988
826.82256,0.66425
825.79799,0.63806
824.77343,0.61233
823.74887,0.58886
822.72430,0.56789
821.69974,0.54863
820.67518,0.53099
819.65061,0.51502
818.62605,0.50046
817.60149,0.48706
816.57692,0.47407
815.55236,0.46064
814.52780,0.44698
813.50323,0.43336
812.47867,0.41954
811.45411,0.40504
810.42954,0.38968
809.40498,0.37371
808.38042,0.35701
807.35586,0.33960
806.33129,0.32207
805.30673,0.30434
804.28217,0.28601
803.25760,0.26812
802.23304,0.25080
801.20848,0.23275
800.18391,0.21496
799.15935,0.19897
798.13479,0.18421
797.11022,0.17046
796.08566,0.15831
795.06110,0.14728
794.03653,0.13692
793.01197,0.12797
791.98741,0.12105
790.96284,0.11613
789.93828,0.11265
788.91372,0.11025
787.88915,0.10945
786.86459,0.11042
785.84003,0.11264
784.81546,0.11605
783.79090,0.12055
782.76634,0.12601
781.74177,0.13271
780.71721,0.14009
779.69265,0.14766
778.66808,0.15590
777.64352,0.16530
776.61896,0.17580
775.59439,0.18622
774.56983,0.19617
773.54527,0.20631
772.52070,0.21658
771.49614,0.22688
770.47158,0.23717
769.44701,0.24747
768.42245,0.25798
767.39789,0.26912
766.37332,0.28127
765.34876,0.29371
764.32420,0.30539
763.29963,0.31621
762.27507,0.32717
761.25051,0.33883
760.22594,0.35016
759.20138,0.36079
758.17682,0.37201
757.15226,0.38418
756.12769,0.39629
755.10313,0.40769
754.07857,0.41875
753.05400,0.43037
752.02944,0.44273
751.00488,0.45502
749.98031,0.46648
748.95575,0.47713
747.93119,0.48763
746.90662,0.49763
745.88206,0.50697
744.85750,0.51598
743.83293,0.52409
742.80837,0.53135
741.78381,0.53789
740.75924,0.54298
739.73468,0.54631
738.71012,0.54842
737.68555,0.54980
736.66099,0.55074
735.63643,0.55186
734.61186,0.55330
733.58730,0.55494
732.56274,0.55668
731.53817,0.55874
730.51361,0.56177
729.48905,0.56536
728.46448,0.56895
727.43992,0.57324
726.41536,0.57803
725.39079,0.58241
724.36623,0.58673
723.34167,0.59129
722.31710,0.59566
721.29254,0.60038
720.26798,0.60572
719.24341,0.61171
718.21885,0.61909
717.19429,0.62705
716.16972,0.63468
715.14516,0.64303
714.12060,0.65176
713.09603,0.65930
712.07147,0.66576
711.04691,0.67149
710.02234,0.67665
708.99778,0.68203
707.97322,0.68823
706.94865,0.69514
705.92409,0.70224
704.89953,0.70948
703.87497,0.71701
702.85040,0.72513
701.82584,0.73394
700.80128,0.74311
699.77671,0.75247
698.75215,0.76191
697.72759,0.77092
696.70302,0.77886
695.67846,0.78642
694.65390,0.79439
693.62933,0.80196
692.60477,0.80814
691.58021,0.81296
690.55564,0.81652
689.53108,0.81899
688.50652,0.82103
687.48195,0.82216
686.45739,0.82162
685.43283,0.82008
684.40826,0.81821
683.38370,0.81570
682.35914,0.81247
681.33457,0.80892
680.31001,0.80519
679.28545,0.80112
678.26088,0.79648
677.23632,0.79155
676.21176,0.78771
675.18719,0.78505
674.16263,0.78234
673.13807,0.77936
672.11350,0.77713
671.08894,0.77705
670.06438,0.77966
669.03981,0.78350
668.01525,0.78388
666.99069,0.78522
665.96612,0.79279
664.94156,0.80161
663.91700,0.80988
662.89243,0.81787
661.86787,0.82610
660.84331,0.83536
659.81874,0.84513
658.79418,0.85377
657.76962,0.86104
656.74505,0.86713
655.72049,0.87273
654.69593,0.87952
653.67136,0.88687
652.64680,0.89286
651.62224,0.89718
650.59768,0.90073
649.57311,0.90468
648.54855,0.90877
647.52399,0.91141
646.49942,0.91213
645.47486,0.91191
644.45030,0.91106
643.42573,0.90943
642.40117,0.90640
641.37661,0.90114
640.35204,0.89467
639.32748,0.88790
638.30292,0.88069
637.27835,0.87449
636.25379,0.87013
635.22923,0.86552
634.20466,0.86116
633.18010,0.86020
632.15554,0.86174
631.13097,0.86327
630.10641,0.86575
629.08185,0.87033
628.05728,0.87619
627.03272,0.88227
626.00816,0.88815
624.98359,0.89367
623.95903,0.89905
622.93447,0.90535
621.90990,0.91235
620.88534,0.91877
619.86078,0.92378
618.83621,0.92766
617.81165,0.93172
616.78709,0.93603
615.76252,0.94042
614.73796,0.94503
613.71340,0.94933
612.68883,0.95306
611.66427,0.95648
610.63971,0.95958
609.61514,0.96204
608.59058,0.96367
607.56602,0.96401
606.54145,0.96377
605.51689,0.96539
604.49233,0.96884
603.46776,0.97148
602.44320,0.97247
601.41864,0.97314
600.39408,0.97454
599.36951,0.97656
598.34495,0.97903
597.32039,0.98114
596.29582,0.98155
595.27126,0.98070
594.24670,0.98128
593.22213,0.98415
592.19757,0.98614
591.17301,0.98615
590.14844,0.98645
589.12388,0.98740
588.09932,0.98857
587.07475,0.98971
586.05019,0.99005
585.02563,0.99035
584.00106,0.99121
582.97650,0.99197
581.95194,0.99257
580.92737,0.99283
579.90281,0.99229
578.87825,0.99173
577.85368,0.99194
576.82912,0.99271
575.80456,0.99412
574.77999,0.99552
573.75543,0.99613
572.73087,0.99682
571.70630,0.99804
570.68174,0.99956
569.65718,1.00000
568.63261,0.99887
567.60805,0.99903
566.58349,1.00000
565.55892,0.99995
564.53436,1.00000
563.50980,1.00080
562.48523,1.00050
561.46067,0.99935
560.43611,0.99871
559.41154,0.99832
558.38698,0.99739
557.36242,0.99568
556.33785,0.99433
555.31329,0.99382
554.28873,0.99235
553.26416,0.99069
552.23960,0.98952
551.21504,0.98761
550.19047,0.98562
549.16591,0.98478
548.14135,0.98565
547.11679,0.98723
546.09222,0.98856
545.06766,0.98960
544.04310,0.99029
543.01853,0.99162
541.99397,0.99253
540.96941,0.99149
539.94484,0.99097
538.92028,0.99185
537.89572,0.99235
536.87115,0.99231
535.84659,0.99243
534.82203,0.99368
533.79746,0.99540
532.77290,0.99500
531.74834,0.99252
530.72377,0.99016
529.69921,0.98801
528.67465,0.98364
527.65008,0.97725
526.62552,0.97119
525.60096,0.96463
524.57639,0.95754
523.55183,0.95303
522.52727,0.95261
521.50270,0.95305
520.47814,0.95230
519.45358,0.95286
518.42901,0.95429
517.40445,0.95464
516.37989,0.95547
515.35532,0.95934
514.33076,0.96538
513.30620,0.96969
512.28163,0.97140
511.25707,0.97253
510.23251,0.97414
509.20794,0.97527
508.18338,0.97420
507.15882,0.97159
506.13425,0.96953
505.10969,0.96851
504.08513,0.96788
503.06056,0.96706
502.03600,0.96551
501.01144,0.96519
499.98687,0.96661
498.96231,0.96918
497.93775,0.97377
496.91318,0.97682
495.88862,0.97581
494.86406,0.97391
493.83950,0.97501
492.81493,0.97923
491.79037,0.98269
490.76581,0.98331
489.74124,0.98200
488.71668,0.98172
487.69212,0.98407
486.66755,0.98682
485.64299,0.99008
484.61843,0.99604
483.59386,1.00000
482.56930,0.99904
481.54474,0.99606
480.52017,0.99337
479.49561,0.98739
478.47105,0.97501
477.44648,0.95489
476.42192,0.92836
475.39736,0.89828
474.37279,0.86661
473.34823,0.83166
472.32367,0.78955
471.29910,0.74667
470.27454,0.70924
469.24998,0.67704
468.22541,0.65046
467.20085,0.62926
466.17629,0.61704
465.15172,0.61655
464.12716,0.62500
463.10260,0.63916
462.07803,0.65919
461.05347,0.68404
460.02891,0.71132
459.00434,0.73987
457.97978,0.76819
456.95522,0.79320
455.93065,0.81515
454.90609,0.83531
453.88153,0.85321
452.85696,0.86972
451.83240,0.88272
450.80784,0.89238
449.78327,0.90323
448.75871,0.91525
447.73415,0.92472
446.70958,0.92982
445.68502,0.93391
444.66046,0.93882
443.63590,0.94086
442.61133,0.94045
441.58677,0.94270
440.56221,0.94550
439.53764,0.94229
438.51308,0.93402
437.48852,0.92798
436.46395,0.92494
435.43939,0.92244
434.41483,0.92370
433.39026,0.92578
432.36570,0.92208
431.34114,0.91624
430.31657,0.91319
429.29201,0.91232
428.26745,0.91262
427.24288,0.91203
426.21832,0.91081
425.19376,0.90880
424.16919,0.90511
423.14463,0.90444
422.12007,0.91072
421.09550,0.91993
420.07094,0.92714
419.04638,0.93510
418.02181,0.94138
416.99725,0.94187
415.97269,0.94557
414.94812,0.95540
413.92356,0.96505
412.89900,0.96925
411.87443,0.97333
410.84987,0.98066
409.82531,0.98503
408.80074,0.98613
407.77618,0.98818
406.75162,0.98965
405.72705,0.98956
404.70249,0.99208
403.67793,0.99475
402.65336,0.99381
401.62880,0.99864
400.60424,1.00000
399.57967,1.00000
