3998.14839	1.00305
3997.18405	1.00306
3996.21971	1.00318
3995.25537	1.00333
3994.29103	1.00345
3993.32669	1.00345
3992.36235	1.00331
3991.39802	1.00314
3990.43368	1.00314
3989.46934	1.00328
3988.50500	1.00335
3987.54066	1.00326
3986.57632	1.00316
3985.61198	1.00317
3984.64764	1.00313
3983.68331	1.00303
3982.71897	1.00306
3981.75463	1.00323
3980.79029	1.00331
3979.82595	1.00324
3978.86161	1.00310
3977.89727	1.00300
3976.93293	1.00296
3975.96860	1.00295
3975.00426	1.00294
3974.03992	1.00288
3973.07558	1.00281
3972.11124	1.00279
3971.14690	1.00284
3970.18256	1.00299
3969.21822	1.00313
3968.25389	1.00308
3967.28955	1.00297
3966.32521	1.00299
3965.36087	1.00299
3964.39653	1.00291
3963.43219	1.00302
3962.46785	1.00343
3961.50351	1.00369
3960.53918	1.00357
3959.57484	1.00329
3958.61050	1.00305
3957.64616	1.00290
3956.68182	1.00280
3955.71748	1.00282
3954.75314	1.00297
3953.78880	1.00304
3952.82447	1.00303
3951.86013	1.00315
3950.89579	1.00336
3949.93145	1.00344
3948.96711	1.00343
3948.00277	1.00346
3947.03843	1.00334
3946.07410	1.00309
3945.10976	1.00301
3944.14542	1.00329
3943.18108	1.00378
3942.21674	1.00392
3941.25240	1.00357
3940.28806	1.00316
3939.32372	1.00290
3938.35939	1.00281
3937.39505	1.00279
3936.43071	1.00274
3935.46637	1.00271
3934.50203	1.00291
3933.53769	1.00337
3932.57335	1.00376
3931.60901	1.00380
3930.64468	1.00372
3929.68034	1.00366
3928.71600	1.00342
3927.75166	1.00311
3926.78732	1.00310
3925.82298	1.00354
3924.85864	1.00393
3923.89430	1.00377
3922.92997	1.00345
3921.96563	1.00335
3921.00129	1.00348
3920.03695	1.00347
3919.07261	1.00323
3918.10827	1.00339
3917.14393	1.00380
3916.17959	1.00356
3915.21526	1.00292
3914.25092	1.00253
3913.28658	1.00241
3912.32224	1.00248
3911.35790	1.00267
3910.39356	1.00283
3909.42922	1.00289
3908.46488	1.00285
3907.50055	1.00295
3906.53621	1.00351
3905.57187	1.00443
3904.60753	1.00518
3903.64319	1.00527
3902.67885	1.00512
3901.71451	1.00500
3900.75017	1.00493
3899.78584	1.00500
3898.82150	1.00451
3897.85716	1.00359
3896.89282	1.00304
3895.92848	1.00286
3894.96414	1.00301
3893.99980	1.00347
3893.03546	1.00424
3892.07113	1.00520
3891.10679	1.00521
3890.14245	1.00409
3889.17811	1.00329
3888.21377	1.00312
3887.24943	1.00352
3886.28509	1.00444
3885.32075	1.00476
3884.35642	1.00422
3883.39208	1.00388
3882.42774	1.00400
3881.46340	1.00468
3880.49906	1.00524
3879.53472	1.00442
3878.57038	1.00337
3877.60605	1.00289
3876.64171	1.00284
3875.67737	1.00327
3874.71303	1.00413
3873.74869	1.00447
3872.78435	1.00413
3871.82001	1.00442
3870.85567	1.00592
3869.89134	1.00731
3868.92700	1.00589
3867.96266	1.00416
3866.99832	1.00385
3866.03398	1.00466
3865.06964	1.00545
3864.10530	1.00513
3863.14096	1.00467
3862.17663	1.00446
3861.21229	1.00394
3860.24795	1.00329
3859.28361	1.00316
3858.31927	1.00358
3857.35493	1.00416
3856.39059	1.00468
3855.42625	1.00589
3854.46192	1.00899
3853.49758	1.01168
3852.53324	1.00974
3851.56890	1.00654
3850.60456	1.00447
3849.64022	1.00351
3848.67588	1.00320
3847.71154	1.00329
3846.74721	1.00342
3845.78287	1.00353
3844.81853	1.00404
3843.85419	1.00464
3842.88985	1.00459
3841.92551	1.00463
3840.96117	1.00527
3839.99683	1.00584
3839.03250	1.00646
3838.06816	1.00719
3837.10382	1.00658
3836.13948	1.00545
3835.17514	1.00465
3834.21080	1.00400
3833.24646	1.00388
3832.28212	1.00439
3831.31779	1.00442
3830.35345	1.00362
3829.38911	1.00319
3828.42477	1.00347
3827.46043	1.00410
3826.49609	1.00439
3825.53175	1.00412
3824.56741	1.00395
3823.60308	1.00429
3822.63874	1.00560
3821.67440	1.00804
3820.71006	1.00844
3819.74572	1.00608
3818.78138	1.00449
3817.81704	1.00429
3816.85270	1.00530
3815.88837	1.00582
3814.92403	1.00444
3813.95969	1.00322
3812.99535	1.00267
3812.03101	1.00257
3811.06667	1.00267
3810.10233	1.00284
3809.13799	1.00331
3808.17366	1.00453
3807.20932	1.00598
3806.24498	1.00557
3805.28064	1.00435
3804.31630	1.00398
3803.35196	1.00464
3802.38762	1.00634
3801.42329	1.00755
3800.45895	1.00605
3799.49461	1.00443
3798.53027	1.00388
3797.56593	1.00411
3796.60159	1.00439
3795.63725	1.00394
3794.67291	1.00322
3793.70858	1.00279
3792.74424	1.00264
3791.77990	1.00266
3790.81556	1.00270
3789.85122	1.00277
3788.88688	1.00295
3787.92254	1.00309
3786.95820	1.00313
3785.99387	1.00326
3785.02953	1.00340
3784.06519	1.00323
3783.10085	1.00280
3782.13651	1.00249
3781.17217	1.00267
3780.20783	1.00334
3779.24349	1.00361
3778.27916	1.00310
3777.31482	1.00275
3776.35048	1.00280
3775.38614	1.00294
3774.42180	1.00295
3773.45746	1.00295
3772.49312	1.00311
3771.52878	1.00360
3770.56445	1.00434
3769.60011	1.00446
3768.63577	1.00378
3767.67143	1.00341
3766.70709	1.00363
3765.74275	1.00389
3764.77841	1.00356
3763.81407	1.00316
3762.84974	1.00301
3761.88540	1.00307
3760.92106	1.00357
3759.95672	1.00432
3758.99238	1.00416
3758.02804	1.00364
3757.06370	1.00371
3756.09936	1.00377
3755.13503	1.00361
3754.17069	1.00410
3753.20635	1.00584
3752.24201	1.00810
3751.27767	1.00855
3750.31333	1.00839
3749.34899	1.00789
3748.38465	1.00626
3747.42032	1.00524
3746.45598	1.00556
3745.49164	1.00760
3744.52730	1.00925
3743.56296	1.00626
3742.59862	1.00437
3741.63428	1.00408
3740.66994	1.00401
3739.70561	1.00387
3738.74127	1.00428
3737.77693	1.00546
3736.81259	1.00710
3735.84825	1.00838
3734.88391	1.00777
3733.91957	1.00647
3732.95524	1.00620
3731.99090	1.00591
3731.02656	1.00462
3730.06222	1.00348
3729.09788	1.00312
3728.13354	1.00351
3727.16920	1.00418
3726.20486	1.00435
3725.24053	1.00397
3724.27619	1.00377
3723.31185	1.00404
3722.34751	1.00413
3721.38317	1.00362
3720.41883	1.00354
3719.45449	1.00403
3718.49015	1.00412
3717.52582	1.00369
3716.56148	1.00345
3715.59714	1.00343
3714.63280	1.00352
3713.66846	1.00423
3712.70412	1.00615
3711.73978	1.00757
3710.77544	1.00672
3709.81111	1.00534
3708.84677	1.00394
3707.88243	1.00297
3706.91809	1.00271
3705.95375	1.00277
3704.98941	1.00277
3704.02507	1.00291
3703.06073	1.00358
3702.09640	1.00432
3701.13206	1.00401
3700.16772	1.00325
3699.20338	1.00292
3698.23904	1.00282
3697.27470	1.00278
3696.31036	1.00282
3695.34602	1.00291
3694.38169	1.00302
3693.41735	1.00329
3692.45301	1.00410
3691.48867	1.00533
3690.52433	1.00593
3689.55999	1.00616
3688.59565	1.00628
3687.63131	1.00503
3686.66698	1.00358
3685.70264	1.00286
3684.73830	1.00248
3683.77396	1.00215
3682.80962	1.00198
3681.84528	1.00210
3680.88094	1.00254
3679.91660	1.00319
3678.95227	1.00371
3677.98793	1.00431
3677.02359	1.00592
3676.05925	1.00894
3675.09491	1.00909
3674.13057	1.00556
3673.16623	1.00374
3672.20189	1.00383
3671.23756	1.00528
3670.27322	1.00650
3669.30888	1.00583
3668.34454	1.00419
3667.38020	1.00284
3666.41586	1.00228
3665.45152	1.00220
3664.48719	1.00216
3663.52285	1.00205
3662.55851	1.00195
3661.59417	1.00193
3660.62983	1.00203
3659.66549	1.00228
3658.70115	1.00270
3657.73681	1.00339
3656.77248	1.00431
3655.80814	1.00430
3654.84380	1.00332
3653.87946	1.00270
3652.91512	1.00282
3651.95078	1.00393
3650.98644	1.00612
3650.02210	1.00795
3649.05777	1.00815
3648.09343	1.00797
3647.12909	1.00695
3646.16475	1.00471
3645.20041	1.00306
3644.23607	1.00259
3643.27173	1.00269
3642.30739	1.00272
3641.34306	1.00252
3640.37872	1.00229
3639.41438	1.00232
3638.45004	1.00261
3637.48570	1.00272
3636.52136	1.00258
3635.55702	1.00268
3634.59268	1.00314
3633.62835	1.00340
3632.66401	1.00315
3631.69967	1.00311
3630.73533	1.00403
3629.77099	1.00640
3628.80665	1.00779
3627.84231	1.00562
3626.87797	1.00388
3625.91364	1.00329
3624.94930	1.00313
3623.98496	1.00311
3623.02062	1.00313
3622.05628	1.00321
3621.09194	1.00378
3620.12760	1.00490
3619.16326	1.00579
3618.19893	1.00583
3617.23459	1.00519
3616.27025	1.00468
3615.30591	1.00485
3614.34157	1.00535
3613.37723	1.00548
3612.41289	1.00479
3611.44855	1.00381
3610.48422	1.00358
3609.51988	1.00400
3608.55554	1.00424
3607.59120	1.00410
3606.62686	1.00364
3605.66252	1.00304
3604.69818	1.00269
3603.73384	1.00269
3602.76951	1.00302
3601.80517	1.00358
3600.84083	1.00394
3599.87649	1.00368
3598.91215	1.00331
3597.94781	1.00337
3596.98347	1.00381
3596.01914	1.00442
3595.05480	1.00472
3594.09046	1.00455
3593.12612	1.00414
3592.16178	1.00361
3591.19744	1.00336
3590.23310	1.00365
3589.26876	1.00437
3588.30443	1.00530
3587.34009	1.00591
3586.37575	1.00542
3585.41141	1.00428
3584.44707	1.00356
3583.48273	1.00329
3582.51839	1.00304
3581.55405	1.00286
3580.58972	1.00292
3579.62538	1.00307
3578.66104	1.00309
3577.69670	1.00309
3576.73236	1.00317
3575.76802	1.00328
3574.80368	1.00333
3573.83934	1.00320
3572.87501	1.00300
3571.91067	1.00302
3570.94633	1.00335
3569.98199	1.00390
3569.01765	1.00490
3568.05331	1.00635
3567.08897	1.00715
3566.12463	1.00639
3565.16030	1.00500
3564.19596	1.00413
3563.23162	1.00375
3562.26728	1.00346
3561.30294	1.00322
3560.33860	1.00302
3559.37426	1.00278
3558.40992	1.00275
3557.44559	1.00299
3556.48125	1.00320
3555.51691	1.00331
3554.55257	1.00346
3553.58823	1.00367
3552.62389	1.00382
3551.65955	1.00364
3550.69521	1.00317
3549.73088	1.00286
3548.76654	1.00299
3547.80220	1.00344
3546.83786	1.00386
3545.87352	1.00407
3544.90918	1.00406
3543.94484	1.00384
3542.98050	1.00354
3542.01617	1.00328
3541.05183	1.00302
3540.08749	1.00280
3539.12315	1.00272
3538.15881	1.00283
3537.19447	1.00309
3536.23013	1.00325
3535.26579	1.00311
3534.30146	1.00286
3533.33712	1.00277
3532.37278	1.00284
3531.40844	1.00290
3530.44410	1.00299
3529.47976	1.00331
3528.51542	1.00376
3527.55108	1.00402
3526.58675	1.00385
3525.62241	1.00336
3524.65807	1.00306
3523.69373	1.00311
3522.72939	1.00315
3521.76505	1.00295
3520.80071	1.00282
3519.83638	1.00286
3518.87204	1.00294
3517.90770	1.00299
3516.94336	1.00299
3515.97902	1.00295
3515.01468	1.00292
3514.05034	1.00287
3513.08600	1.00281
3512.12167	1.00289
3511.15733	1.00308
3510.19299	1.00316
3509.22865	1.00309
3508.26431	1.00297
3507.29997	1.00283
3506.33563	1.00271
3505.37129	1.00274
3504.40696	1.00301
3503.44262	1.00337
3502.47828	1.00351
3501.51394	1.00327
3500.54960	1.00282
3499.58526	1.00252
3498.62092	1.00248
3497.65658	1.00262
3496.69225	1.00278
3495.72791	1.00284
3494.76357	1.00287
3493.79923	1.00292
3492.83489	1.00298
3491.87055	1.00300
3490.90621	1.00291
3489.94187	1.00284
3488.97754	1.00294
3488.01320	1.00299
3487.04886	1.00291
3486.08452	1.00285
3485.12018	1.00285
3484.15584	1.00298
3483.19150	1.00321
3482.22716	1.00327
3481.26283	1.00308
3480.29849	1.00293
3479.33415	1.00290
3478.36981	1.00288
3477.40547	1.00272
3476.44113	1.00255
3475.47679	1.00259
3474.51245	1.00270
3473.54812	1.00263
3472.58378	1.00254
3471.61944	1.00260
3470.65510	1.00262
3469.69076	1.00249
3468.72642	1.00247
3467.76208	1.00266
3466.79774	1.00288
3465.83341	1.00299
3464.86907	1.00300
3463.90473	1.00299
3462.94039	1.00295
3461.97605	1.00282
3461.01171	1.00265
3460.04737	1.00255
3459.08303	1.00252
3458.11870	1.00250
3457.15436	1.00249
3456.19002	1.00245
3455.22568	1.00242
3454.26134	1.00246
3453.29700	1.00245
3452.33266	1.00239
3451.36833	1.00246
3450.40399	1.00259
3449.43965	1.00261
3448.47531	1.00264
3447.51097	1.00274
3446.54663	1.00277
3445.58229	1.00270
3444.61795	1.00267
3443.65362	1.00268
3442.68928	1.00267
3441.72494	1.00262
3440.76060	1.00257
3439.79626	1.00258
3438.83192	1.00261
3437.86758	1.00256
3436.90324	1.00248
3435.93891	1.00242
3434.97457	1.00234
3434.01023	1.00228
3433.04589	1.00235
3432.08155	1.00241
3431.11721	1.00227
3430.15287	1.00211
3429.18853	1.00212
3428.22420	1.00226
3427.25986	1.00236
3426.29552	1.00232
3425.33118	1.00223
3424.36684	1.00224
3423.40250	1.00230
3422.43816	1.00233
3421.47382	1.00236
3420.50949	1.00247
3419.54515	1.00257
3418.58081	1.00257
3417.61647	1.00245
3416.65213	1.00234
3415.68779	1.00238
3414.72345	1.00246
3413.75911	1.00251
3412.79478	1.00259
3411.83044	1.00260
3410.86610	1.00246
3409.90176	1.00228
3408.93742	1.00222
3407.97308	1.00233
3407.00874	1.00242
3406.04440	1.00238
3405.08007	1.00237
3404.11573	1.00238
3403.15139	1.00231
3402.18705	1.00224
3401.22271	1.00223
3400.25837	1.00218
3399.29403	1.00213
3398.32969	1.00212
3397.36536	1.00216
3396.40102	1.00217
3395.43668	1.00211
3394.47234	1.00210
3393.50800	1.00223
3392.54366	1.00231
3391.57932	1.00224
3390.61498	1.00223
3389.65065	1.00234
3388.68631	1.00242
3387.72197	1.00237
3386.75763	1.00227
3385.79329	1.00225
3384.82895	1.00231
3383.86461	1.00235
3382.90028	1.00227
3381.93594	1.00214
3380.97160	1.00213
3380.00726	1.00225
3379.04292	1.00229
3378.07858	1.00215
3377.11424	1.00199
3376.14990	1.00194
3375.18557	1.00192
3374.22123	1.00195
3373.25689	1.00209
3372.29255	1.00221
3371.32821	1.00217
3370.36387	1.00209
3369.39953	1.00204
3368.43519	1.00202
3367.47086	1.00201
3366.50652	1.00197
3365.54218	1.00193
3364.57784	1.00192
3363.61350	1.00192
3362.64916	1.00189
3361.68482	1.00185
3360.72048	1.00185
3359.75615	1.00183
3358.79181	1.00181
3357.82747	1.00182
3356.86313	1.00182
3355.89879	1.00186
3354.93445	1.00200
3353.97011	1.00219
3353.00577	1.00229
3352.04144	1.00230
3351.07710	1.00226
3350.11276	1.00210
3349.14842	1.00189
3348.18408	1.00186
3347.21974	1.00203
3346.25540	1.00215
3345.29106	1.00210
3344.32673	1.00199
3343.36239	1.00200
3342.39805	1.00205
3341.43371	1.00198
3340.46937	1.00186
3339.50503	1.00183
3338.54069	1.00194
3337.57635	1.00202
3336.61202	1.00203
3335.64768	1.00203
3334.68334	1.00201
3333.71900	1.00193
3332.75466	1.00189
3331.79032	1.00195
3330.82598	1.00201
3329.86164	1.00198
3328.89731	1.00192
3327.93297	1.00194
3326.96863	1.00197
3326.00429	1.00195
3325.03995	1.00196
3324.07561	1.00203
3323.11127	1.00208
3322.14693	1.00202
3321.18260	1.00194
3320.21826	1.00197
3319.25392	1.00206
3318.28958	1.00212
3317.32524	1.00215
3316.36090	1.00217
3315.39656	1.00216
3314.43223	1.00213
3313.46789	1.00209
3312.50355	1.00202
3311.53921	1.00200
3310.57487	1.00203
3309.61053	1.00206
3308.64619	1.00200
3307.68185	1.00189
3306.71752	1.00189
3305.75318	1.00195
3304.78884	1.00188
3303.82450	1.00178
3302.86016	1.00188
3301.89582	1.00201
3300.93148	1.00201
3299.96714	1.00197
3299.00281	1.00196
3298.03847	1.00192
3297.07413	1.00188
3296.10979	1.00190
3295.14545	1.00189
3294.18111	1.00185
3293.21677	1.00185
3292.25243	1.00185
3291.28810	1.00181
3290.32376	1.00181
3289.35942	1.00181
3288.39508	1.00178
3287.43074	1.00174
3286.46640	1.00173
3285.50206	1.00183
3284.53772	1.00195
3283.57339	1.00192
3282.60905	1.00175
3281.64471	1.00161
3280.68037	1.00163
3279.71603	1.00175
3278.75169	1.00180
3277.78735	1.00181
3276.82301	1.00188
3275.85868	1.00201
3274.89434	1.00218
3273.93000	1.00227
3272.96566	1.00216
3272.00132	1.00191
3271.03698	1.00179
3270.07264	1.00178
3269.10830	1.00169
3268.14397	1.00162
3267.17963	1.00170
3266.21529	1.00172
3265.25095	1.00165
3264.28661	1.00168
3263.32227	1.00184
3262.35793	1.00197
3261.39359	1.00200
3260.42926	1.00198
3259.46492	1.00198
3258.50058	1.00194
3257.53624	1.00184
3256.57190	1.00178
3255.60756	1.00182
3254.64322	1.00184
3253.67888	1.00179
3252.71455	1.00170
3251.75021	1.00164
3250.78587	1.00168
3249.82153	1.00178
3248.85719	1.00178
3247.89285	1.00169
3246.92851	1.00168
3245.96417	1.00180
3244.99984	1.00185
3244.03550	1.00172
3243.07116	1.00157
3242.10682	1.00154
3241.14248	1.00160
3240.17814	1.00172
3239.21380	1.00180
3238.24947	1.00165
3237.28513	1.00142
3236.32079	1.00146
3235.35645	1.00159
3234.39211	1.00160
3233.42777	1.00166
3232.46343	1.00174
3231.49909	1.00173
3230.53476	1.00167
3229.57042	1.00165
3228.60608	1.00165
3227.64174	1.00173
3226.67740	1.00185
3225.71306	1.00185
3224.74872	1.00178
3223.78438	1.00174
3222.82005	1.00177
3221.85571	1.00183
3220.89137	1.00183
3219.92703	1.00175
3218.96269	1.00170
3217.99835	1.00171
3217.03401	1.00172
3216.06967	1.00167
3215.10534	1.00162
3214.14100	1.00166
3213.17666	1.00171
3212.21232	1.00174
3211.24798	1.00178
3210.28364	1.00183
3209.31930	1.00183
3208.35496	1.00177
3207.39063	1.00172
3206.42629	1.00170
3205.46195	1.00169
3204.49761	1.00164
3203.53327	1.00160
3202.56893	1.00163
3201.60459	1.00167
3200.64025	1.00170
3199.67592	1.00172
3198.71158	1.00173
3197.74724	1.00170
3196.78290	1.00167
3195.81856	1.00174
3194.85422	1.00185
3193.88988	1.00186
3192.92554	1.00183
3191.96121	1.00187
3190.99687	1.00190
3190.03253	1.00181
3189.06819	1.00166
3188.10385	1.00157
3187.13951	1.00159
3186.17517	1.00172
3185.21083	1.00181
3184.24650	1.00172
3183.28216	1.00166
3182.31782	1.00175
3181.35348	1.00180
3180.38914	1.00175
3179.42480	1.00176
3178.46046	1.00186
3177.49612	1.00189
3176.53179	1.00181
3175.56745	1.00168
3174.60311	1.00165
3173.63877	1.00167
3172.67443	1.00165
3171.71009	1.00159
3170.74575	1.00157
3169.78142	1.00160
3168.81708	1.00168
3167.85274	1.00175
3166.88840	1.00178
3165.92406	1.00172
3164.95972	1.00159
3163.99538	1.00152
3163.03104	1.00153
3162.06671	1.00157
3161.10237	1.00165
3160.13803	1.00175
3159.17369	1.00183
3158.20935	1.00185
3157.24501	1.00177
3156.28067	1.00162
3155.31633	1.00149
3154.35200	1.00144
3153.38766	1.00146
3152.42332	1.00152
3151.45898	1.00159
3150.49464	1.00165
3149.53030	1.00164
3148.56596	1.00151
3147.60162	1.00140
3146.63729	1.00146
3145.67295	1.00162
3144.70861	1.00172
3143.74427	1.00177
3142.77993	1.00173
3141.81559	1.00159
3140.85125	1.00147
3139.88691	1.00146
3138.92258	1.00150
3137.95824	1.00147
3136.99390	1.00140
3136.02956	1.00140
3135.06522	1.00149
3134.10088	1.00159
3133.13654	1.00161
3132.17220	1.00150
3131.20787	1.00137
3130.24353	1.00140
3129.27919	1.00148
3128.31485	1.00151
3127.35051	1.00161
3126.38617	1.00175
3125.42183	1.00175
3124.45749	1.00157
3123.49316	1.00145
3122.52882	1.00148
3121.56448	1.00145
3120.60014	1.00138
3119.63580	1.00141
3118.67146	1.00148
3117.70712	1.00152
3116.74278	1.00151
3115.77845	1.00144
3114.81411	1.00135
3113.84977	1.00131
3112.88543	1.00125
3111.92109	1.00118
3110.95675	1.00114
3109.99241	1.00115
3109.02807	1.00128
3108.06374	1.00145
3107.09940	1.00154
3106.13506	1.00156
3105.17072	1.00153
3104.20638	1.00141
3103.24204	1.00131
3102.27770	1.00138
3101.31337	1.00152
3100.34903	1.00160
3099.38469	1.00159
3098.42035	1.00150
3097.45601	1.00142
3096.49167	1.00144
3095.52733	1.00144
3094.56299	1.00135
3093.59866	1.00127
3092.63432	1.00126
3091.66998	1.00130
3090.70564	1.00133
3089.74130	1.00132
3088.77696	1.00129
3087.81262	1.00128
3086.84828	1.00128
3085.88395	1.00128
3084.91961	1.00126
3083.95527	1.00125
3082.99093	1.00132
3082.02659	1.00137
3081.06225	1.00140
3080.09791	1.00144
3079.13357	1.00147
3078.16924	1.00153
3077.20490	1.00159
3076.24056	1.00158
3075.27622	1.00156
3074.31188	1.00156
3073.34754	1.00152
3072.38320	1.00145
3071.41886	1.00136
3070.45453	1.00129
3069.49019	1.00130
3068.52585	1.00136
3067.56151	1.00138
3066.59717	1.00129
3065.63283	1.00122
3064.66849	1.00128
3063.70415	1.00142
3062.73982	1.00152
3061.77548	1.00151
3060.81114	1.00141
3059.84680	1.00136
3058.88246	1.00135
3057.91812	1.00140
3056.95378	1.00149
3055.98944	1.00142
3055.02511	1.00124
3054.06077	1.00115
3053.09643	1.00118
3052.13209	1.00126
3051.16775	1.00134
3050.20341	1.00140
3049.23907	1.00145
3048.27473	1.00148
3047.31040	1.00145
3046.34606	1.00135
3045.38172	1.00129
3044.41738	1.00131
3043.45304	1.00136
3042.48870	1.00135
3041.52436	1.00128
3040.56002	1.00122
3039.59569	1.00118
3038.63135	1.00112
3037.66701	1.00108
3036.70267	1.00115
3035.73833	1.00130
3034.77399	1.00135
3033.80965	1.00130
3032.84532	1.00129
3031.88098	1.00136
3030.91664	1.00135
3029.95230	1.00131
3028.98796	1.00130
3028.02362	1.00128
3027.05928	1.00127
3026.09494	1.00131
3025.13061	1.00134
3024.16627	1.00130
3023.20193	1.00123
3022.23759	1.00123
3021.27325	1.00128
3020.30891	1.00132
3019.34457	1.00130
3018.38023	1.00121
3017.41590	1.00114
3016.45156	1.00119
3015.48722	1.00132
3014.52288	1.00146
3013.55854	1.00155
3012.59420	1.00153
3011.62986	1.00145
3010.66552	1.00142
3009.70119	1.00139
3008.73685	1.00137
3007.77251	1.00135
3006.80817	1.00131
3005.84383	1.00129
3004.87949	1.00129
3003.91515	1.00133
3002.95081	1.00139
3001.98648	1.00139
3001.02214	1.00135
3000.05780	1.00137
2999.09346	1.00139
2998.12912	1.00133
2997.16478	1.00130
2996.20044	1.00131
2995.23610	1.00133
2994.27177	1.00138
2993.30743	1.00145
2992.34309	1.00153
2991.37875	1.00158
2990.41441	1.00158
2989.45007	1.00151
2988.48573	1.00143
2987.52139	1.00138
2986.55706	1.00133
2985.59272	1.00129
2984.62838	1.00131
2983.66404	1.00134
2982.69970	1.00135
2981.73536	1.00131
2980.77102	1.00127
2979.80668	1.00130
2978.84235	1.00138
2977.87801	1.00144
2976.91367	1.00143
2975.94933	1.00138
2974.98499	1.00136
2974.02065	1.00137
2973.05631	1.00138
2972.09197	1.00137
2971.12764	1.00139
2970.16330	1.00140
2969.19896	1.00144
2968.23462	1.00150
2967.27028	1.00144
2966.30594	1.00126
2965.34160	1.00116
2964.37726	1.00122
2963.41293	1.00130
2962.44859	1.00128
2961.48425	1.00121
2960.51991	1.00120
2959.55557	1.00127
2958.59123	1.00133
2957.62689	1.00137
2956.66256	1.00140
2955.69822	1.00140
2954.73388	1.00134
2953.76954	1.00120
2952.80520	1.00108
2951.84086	1.00108
2950.87652	1.00113
2949.91218	1.00114
2948.94785	1.00112
2947.98351	1.00114
2947.01917	1.00121
2946.05483	1.00128
2945.09049	1.00119
2944.12615	1.00102
2943.16181	1.00094
2942.19747	1.00095
2941.23314	1.00098
2940.26880	1.00100
2939.30446	1.00102
2938.34012	1.00102
2937.37578	1.00098
2936.41144	1.00098
2935.44710	1.00101
2934.48276	1.00098
2933.51843	1.00091
2932.55409	1.00087
2931.58975	1.00089
2930.62541	1.00097
2929.66107	1.00103
2928.69673	1.00103
2927.73239	1.00099
2926.76805	1.00093
2925.80372	1.00091
2924.83938	1.00098
2923.87504	1.00110
2922.91070	1.00117
2921.94636	1.00117
2920.98202	1.00114
2920.01768	1.00117
2919.05334	1.00119
2918.08901	1.00114
2917.12467	1.00104
2916.16033	1.00095
2915.19599	1.00093
2914.23165	1.00099
2913.26731	1.00110
2912.30297	1.00117
2911.33863	1.00111
2910.37430	1.00103
2909.40996	1.00105
2908.44562	1.00113
2907.48128	1.00117
2906.51694	1.00120
2905.55260	1.00122
2904.58826	1.00121
2903.62392	1.00117
2902.65959	1.00115
2901.69525	1.00114
2900.73091	1.00114
2899.76657	1.00115
2898.80223	1.00119
2897.83789	1.00120
2896.87355	1.00113
2895.90921	1.00108
2894.94488	1.00108
2893.98054	1.00107
2893.01620	1.00105
2892.05186	1.00105
2891.08752	1.00106
2890.12318	1.00106
2889.15884	1.00108
2888.19451	1.00116
2887.23017	1.00120
2886.26583	1.00114
2885.30149	1.00108
2884.33715	1.00111
2883.37281	1.00116
2882.40847	1.00117
2881.44413	1.00117
2880.47980	1.00115
2879.51546	1.00108
2878.55112	1.00098
2877.58678	1.00092
2876.62244	1.00094
2875.65810	1.00102
2874.69376	1.00106
2873.72942	1.00104
2872.76509	1.00099
2871.80075	1.00095
2870.83641	1.00095
2869.87207	1.00094
2868.90773	1.00090
2867.94339	1.00092
2866.97905	1.00103
2866.01471	1.00113
2865.05038	1.00118
2864.08604	1.00119
2863.12170	1.00119
2862.15736	1.00120
2861.19302	1.00117
2860.22868	1.00105
2859.26434	1.00096
2858.30000	1.00095
2857.33567	1.00094
2856.37133	1.00093
2855.40699	1.00097
2854.44265	1.00099
2853.47831	1.00095
2852.51397	1.00093
2851.54963	1.00093
2850.58529	1.00094
2849.62096	1.00095
2848.65662	1.00095
2847.69228	1.00098
2846.72794	1.00105
2845.76360	1.00110
2844.79926	1.00108
2843.83492	1.00100
2842.87058	1.00095
2841.90625	1.00097
2840.94191	1.00095
2839.97757	1.00087
2839.01323	1.00083
2838.04889	1.00085
2837.08455	1.00093
2836.12021	1.00099
2835.15587	1.00097
2834.19154	1.00092
2833.22720	1.00087
2832.26286	1.00089
2831.29852	1.00096
2830.33418	1.00097
2829.36984	1.00093
2828.40550	1.00092
2827.44116	1.00091
2826.47683	1.00087
2825.51249	1.00088
2824.54815	1.00092
2823.58381	1.00092
2822.61947	1.00087
2821.65513	1.00081
2820.69079	1.00074
2819.72646	1.00071
2818.76212	1.00077
2817.79778	1.00084
2816.83344	1.00089
2815.86910	1.00092
2814.90476	1.00090
2813.94042	1.00085
2812.97608	1.00081
2812.01175	1.00083
2811.04741	1.00085
2810.08307	1.00083
2809.11873	1.00084
2808.15439	1.00091
2807.19005	1.00095
2806.22571	1.00090
2805.26137	1.00079
2804.29704	1.00070
2803.33270	1.00072
2802.36836	1.00081
2801.40402	1.00089
2800.43968	1.00089
2799.47534	1.00084
2798.51100	1.00077
2797.54666	1.00075
2796.58233	1.00077
2795.61799	1.00076
2794.65365	1.00075
2793.68931	1.00075
2792.72497	1.00074
2791.76063	1.00077
2790.79629	1.00081
2789.83195	1.00079
2788.86762	1.00080
2787.90328	1.00086
2786.93894	1.00089
2785.97460	1.00087
2785.01026	1.00083
2784.04592	1.00082
2783.08158	1.00088
2782.11724	1.00095
2781.15291	1.00094
2780.18857	1.00084
2779.22423	1.00076
2778.25989	1.00079
2777.29555	1.00085
2776.33121	1.00086
2775.36687	1.00084
2774.40253	1.00083
2773.43820	1.00083
2772.47386	1.00084
2771.50952	1.00083
2770.54518	1.00084
2769.58084	1.00089
2768.61650	1.00090
2767.65216	1.00087
2766.68782	1.00083
2765.72349	1.00078
2764.75915	1.00073
2763.79481	1.00075
2762.83047	1.00083
2761.86613	1.00087
2760.90179	1.00083
2759.93745	1.00085
2758.97311	1.00093
2758.00878	1.00099
2757.04444	1.00095
2756.08010	1.00087
2755.11576	1.00079
2754.15142	1.00074
2753.18708	1.00075
2752.22274	1.00077
2751.25840	1.00077
2750.29407	1.00076
2749.32973	1.00072
2748.36539	1.00069
2747.40105	1.00069
2746.43671	1.00073
2745.47237	1.00079
2744.50803	1.00083
2743.54370	1.00083
2742.57936	1.00080
2741.61502	1.00076
2740.65068	1.00073
2739.68634	1.00072
2738.72200	1.00071
2737.75766	1.00068
2736.79332	1.00067
2735.82899	1.00069
2734.86465	1.00068
2733.90031	1.00065
2732.93597	1.00066
2731.97163	1.00072
2731.00729	1.00072
2730.04295	1.00065
2729.07861	1.00064
2728.11428	1.00072
2727.14994	1.00076
2726.18560	1.00072
2725.22126	1.00069
2724.25692	1.00071
2723.29258	1.00069
2722.32824	1.00065
2721.36390	1.00065
2720.39957	1.00065
2719.43523	1.00062
2718.47089	1.00058
2717.50655	1.00059
2716.54221	1.00064
2715.57787	1.00068
2714.61353	1.00068
2713.64919	1.00067
2712.68486	1.00067
2711.72052	1.00066
2710.75618	1.00064
2709.79184	1.00061
2708.82750	1.00062
2707.86316	1.00062
2706.89882	1.00060
2705.93448	1.00060
2704.97015	1.00066
2704.00581	1.00070
2703.04147	1.00070
2702.07713	1.00074
2701.11279	1.00078
2700.14845	1.00076
2699.18411	1.00071
2698.21977	1.00068
2697.25544	1.00068
2696.29110	1.00072
2695.32676	1.00077
2694.36242	1.00077
2693.39808	1.00075
2692.43374	1.00074
2691.46940	1.00074
2690.50506	1.00073
2689.54073	1.00071
2688.57639	1.00066
2687.61205	1.00063
2686.64771	1.00063
2685.68337	1.00066
2684.71903	1.00065
2683.75469	1.00062
2682.79035	1.00061
2681.82602	1.00064
2680.86168	1.00064
2679.89734	1.00063
2678.93300	1.00063
2677.96866	1.00062
2677.00432	1.00060
2676.03998	1.00059
2675.07565	1.00058
2674.11131	1.00060
2673.14697	1.00063
2672.18263	1.00061
2671.21829	1.00057
2670.25395	1.00055
2669.28961	1.00053
2668.32527	1.00051
2667.36094	1.00052
2666.39660	1.00055
2665.43226	1.00054
2664.46792	1.00052
2663.50358	1.00049
2662.53924	1.00048
2661.57490	1.00050
2660.61056	1.00052
2659.64623	1.00051
2658.68189	1.00046
2657.71755	1.00041
2656.75321	1.00040
2655.78887	1.00044
2654.82453	1.00048
2653.86019	1.00046
2652.89585	1.00043
2651.93152	1.00048
2650.96718	1.00054
2650.00284	1.00050
2649.03850	1.00043
2648.07416	1.00040
2647.10982	1.00037
2646.14548	1.00040
2645.18114	1.00045
2644.21681	1.00042
2643.25247	1.00035
2642.28813	1.00033
2641.32379	1.00036
2640.35945	1.00041
2639.39511	1.00046
2638.43077	1.00048
2637.46643	1.00044
2636.50210	1.00038
2635.53776	1.00035
2634.57342	1.00035
2633.60908	1.00039
2632.64474	1.00045
2631.68040	1.00049
2630.71606	1.00053
2629.75172	1.00059
2628.78739	1.00063
2627.82305	1.00059
2626.85871	1.00052
2625.89437	1.00048
2624.93003	1.00051
2623.96569	1.00062
2623.00135	1.00071
2622.03701	1.00072
2621.07268	1.00071
2620.10834	1.00070
2619.14400	1.00064
2618.17966	1.00054
2617.21532	1.00049
2616.25098	1.00051
2615.28664	1.00059
2614.32230	1.00070
2613.35797	1.00076
2612.39363	1.00075
2611.42929	1.00068
2610.46495	1.00068
2609.50061	1.00081
2608.53627	1.00093
2607.57193	1.00097
2606.60760	1.00096
2605.64326	1.00092
2604.67892	1.00086
2603.71458	1.00086
2602.75024	1.00087
2601.78590	1.00081
2600.82156	1.00074
2599.85722	1.00073
2598.89289	1.00080
2597.92855	1.00092
2596.96421	1.00099
2595.99987	1.00098
2595.03553	1.00094
2594.07119	1.00092
2593.10685	1.00092
2592.14251	1.00095
2591.17818	1.00097
2590.21384	1.00095
2589.24950	1.00092
2588.28516	1.00093
2587.32082	1.00094
2586.35648	1.00093
2585.39214	1.00094
2584.42780	1.00100
2583.46347	1.00106
2582.49913	1.00108
2581.53479	1.00104
2580.57045	1.00097
2579.60611	1.00099
2578.64177	1.00111
2577.67743	1.00122
2576.71309	1.00125
2575.74876	1.00120
2574.78442	1.00115
2573.82008	1.00117
2572.85574	1.00124
2571.89140	1.00128
2570.92706	1.00125
2569.96272	1.00120
2568.99838	1.00119
2568.03405	1.00122
2567.06971	1.00120
2566.10537	1.00118
2565.14103	1.00123
2564.17669	1.00125
2563.21235	1.00127
2562.24801	1.00136
2561.28367	1.00142
2560.31934	1.00141
2559.35500	1.00141
2558.39066	1.00140
2557.42632	1.00133
2556.46198	1.00119
2555.49764	1.00110
2554.53330	1.00115
2553.56896	1.00131
2552.60463	1.00151
2551.64029	1.00161
2550.67595	1.00157
2549.71161	1.00156
2548.74727	1.00165
2547.78293	1.00164
2546.81859	1.00153
2545.85425	1.00143
2544.88992	1.00138
2543.92558	1.00140
2542.96124	1.00147
2541.99690	1.00154
2541.03256	1.00160
2540.06822	1.00163
2539.10388	1.00165
2538.13955	1.00161
2537.17521	1.00154
2536.21087	1.00153
2535.24653	1.00155
2534.28219	1.00156
2533.31785	1.00162
2532.35351	1.00174
2531.38917	1.00177
2530.42484	1.00170
2529.46050	1.00161
2528.49616	1.00155
2527.53182	1.00154
2526.56748	1.00155
2525.60314	1.00159
2524.63880	1.00162
2523.67446	1.00160
2522.71013	1.00159
2521.74579	1.00162
2520.78145	1.00162
2519.81711	1.00157
2518.85277	1.00148
2517.88843	1.00145
2516.92409	1.00151
2515.95975	1.00162
2514.99542	1.00172
2514.03108	1.00184
2513.06674	1.00189
2512.10240	1.00185
2511.13806	1.00176
2510.17372	1.00170
2509.20938	1.00170
2508.24504	1.00174
2507.28071	1.00175
2506.31637	1.00176
2505.35203	1.00177
2504.38769	1.00167
2503.42335	1.00158
2502.45901	1.00162
2501.49467	1.00169
2500.53033	1.00179
2499.56600	1.00196
2498.60166	1.00214
2497.63732	1.00217
2496.67298	1.00202
2495.70864	1.00180
2494.74430	1.00172
2493.77996	1.00183
2492.81562	1.00202
2491.85129	1.00214
2490.88695	1.00213
2489.92261	1.00207
2488.95827	1.00204
2487.99393	1.00202
2487.02959	1.00203
2486.06525	1.00203
2485.10091	1.00205
2484.13658	1.00208
2483.17224	1.00209
2482.20790	1.00209
2481.24356	1.00211
2480.27922	1.00214
2479.31488	1.00209
2478.35054	1.00197
2477.38620	1.00186
2476.42187	1.00178
2475.45753	1.00177
2474.49319	1.00188
2473.52885	1.00202
2472.56451	1.00205
2471.60017	1.00198
2470.63583	1.00194
2469.67149	1.00200
2468.70716	1.00208
2467.74282	1.00207
2466.77848	1.00199
2465.81414	1.00196
2464.84980	1.00197
2463.88546	1.00196
2462.92112	1.00194
2461.95679	1.00194
2460.99245	1.00195
2460.02811	1.00187
2459.06377	1.00172
2458.09943	1.00168
2457.13509	1.00182
2456.17075	1.00195
2455.20641	1.00198
2454.24208	1.00201
2453.27774	1.00205
2452.31340	1.00210
2451.34906	1.00214
2450.38472	1.00210
2449.42038	1.00198
2448.45604	1.00191
2447.49170	1.00194
2446.52737	1.00202
2445.56303	1.00205
2444.59869	1.00202
2443.63435	1.00199
2442.67001	1.00195
2441.70567	1.00193
2440.74133	1.00197
2439.77699	1.00203
2438.81266	1.00206
2437.84832	1.00211
2436.88398	1.00218
2435.91964	1.00223
2434.95530	1.00216
2433.99096	1.00197
2433.02662	1.00188
2432.06228	1.00200
2431.09795	1.00212
2430.13361	1.00216
2429.16927	1.00219
2428.20493	1.00223
2427.24059	1.00227
2426.27625	1.00227
2425.31191	1.00220
2424.34757	1.00215
2423.38324	1.00218
2422.41890	1.00220
2421.45456	1.00213
2420.49022	1.00211
2419.52588	1.00214
2418.56154	1.00218
2417.59720	1.00224
2416.63286	1.00228
2415.66853	1.00220
2414.70419	1.00206
2413.73985	1.00195
2412.77551	1.00197
2411.81117	1.00205
2410.84683	1.00207
2409.88249	1.00203
2408.91815	1.00204
2407.95382	1.00208
2406.98948	1.00205
2406.02514	1.00199
2405.06080	1.00192
2404.09646	1.00188
2403.13212	1.00188
2402.16778	1.00186
2401.20344	1.00178
2400.23911	1.00175
2399.27477	1.00180
2398.31043	1.00188
2397.34609	1.00189
2396.38175	1.00181
2395.41741	1.00173
2394.45307	1.00175
2393.48874	1.00183
2392.52440	1.00184
2391.56006	1.00174
2390.59572	1.00163
2389.63138	1.00160
2388.66704	1.00164
2387.70270	1.00171
2386.73836	1.00179
2385.77403	1.00182
2384.80969	1.00181
2383.84535	1.00179
2382.88101	1.00185
2381.91667	1.00202
2380.95233	1.00217
2379.98799	1.00218
2379.02365	1.00210
2378.05932	1.00210
2377.09498	1.00221
2376.13064	1.00238
2375.16630	1.00258
2374.20196	1.00280
2373.23762	1.00303
2372.27328	1.00336
2371.30894	1.00385
2370.34461	1.00432
2369.38027	1.00470
2368.41593	1.00506
2367.45159	1.00533
2366.48725	1.00556
2365.52291	1.00585
2364.55857	1.00615
2363.59423	1.00634
2362.62990	1.00642
2361.66556	1.00643
2360.70122	1.00639
2359.73688	1.00631
2358.77254	1.00616
2357.80820	1.00581
2356.84386	1.00542
2355.87952	1.00513
2354.91519	1.00469
2353.95085	1.00397
2352.98651	1.00327
2352.02217	1.00264
2351.05783	1.00207
2350.09349	1.00174
2349.12915	1.00175
2348.16481	1.00203
2347.20048	1.00257
2346.23614	1.00327
2345.27180	1.00380
2344.30746	1.00403
2343.34312	1.00417
2342.37878	1.00423
2341.41444	1.00421
2340.45010	1.00439
2339.48577	1.00469
2338.52143	1.00478
2337.55709	1.00473
2336.59275	1.00465
2335.62841	1.00452
2334.66407	1.00447
2333.69973	1.00454
2332.73539	1.00456
2331.77106	1.00452
2330.80672	1.00446
2329.84238	1.00433
2328.87804	1.00410
2327.91370	1.00381
2326.94936	1.00355
2325.98502	1.00338
2325.02069	1.00323
2324.05635	1.00310
2323.09201	1.00310
2322.12767	1.00312
2321.16333	1.00303
2320.19899	1.00293
2319.23465	1.00286
2318.27031	1.00268
2317.30598	1.00245
2316.34164	1.00234
2315.37730	1.00234
2314.41296	1.00238
2313.44862	1.00248
2312.48428	1.00257
2311.51994	1.00262
2310.55560	1.00268
2309.59127	1.00275
2308.62693	1.00270
2307.66259	1.00255
2306.69825	1.00248
2305.73391	1.00251
2304.76957	1.00249
2303.80523	1.00239
2302.84089	1.00231
2301.87656	1.00220
2300.91222	1.00208
2299.94788	1.00206
2298.98354	1.00214
2298.01920	1.00226
2297.05486	1.00242
2296.09052	1.00250
2295.12618	1.00243
2294.16185	1.00228
2293.19751	1.00218
2292.23317	1.00228
2291.26883	1.00249
2290.30449	1.00255
2289.34015	1.00245
2288.37581	1.00243
2287.41147	1.00252
2286.44714	1.00255
2285.48280	1.00252
2284.51846	1.00255
2283.55412	1.00259
2282.58978	1.00265
2281.62544	1.00278
2280.66110	1.00288
2279.69676	1.00284
2278.73243	1.00281
2277.76809	1.00291
2276.80375	1.00301
2275.83941	1.00303
2274.87507	1.00304
2273.91073	1.00307
2272.94639	1.00304
2271.98205	1.00300
2271.01772	1.00305
2270.05338	1.00312
2269.08904	1.00318
2268.12470	1.00328
2267.16036	1.00337
2266.19602	1.00338
2265.23168	1.00335
2264.26734	1.00333
2263.30301	1.00338
2262.33867	1.00355
2261.37433	1.00371
2260.40999	1.00381
2259.44565	1.00385
2258.48131	1.00379
2257.51697	1.00368
2256.55264	1.00364
2255.58830	1.00367
2254.62396	1.00366
2253.65962	1.00365
2252.69528	1.00371
2251.73094	1.00384
2250.76660	1.00402
2249.80226	1.00410
2248.83793	1.00405
2247.87359	1.00403
2246.90925	1.00405
2245.94491	1.00411
2244.98057	1.00420
2244.01623	1.00432
2243.05189	1.00446
2242.08755	1.00453
2241.12322	1.00446
2240.15888	1.00438
2239.19454	1.00442
2238.23020	1.00448
2237.26586	1.00446
2236.30152	1.00443
2235.33718	1.00459
2234.37284	1.00483
2233.40851	1.00492
2232.44417	1.00490
2231.47983	1.00483
2230.51549	1.00472
2229.55115	1.00463
2228.58681	1.00465
2227.62247	1.00477
2226.65813	1.00485
2225.69380	1.00483
2224.72946	1.00487
2223.76512	1.00502
2222.80078	1.00512
2221.83644	1.00509
2220.87210	1.00506
2219.90776	1.00512
2218.94342	1.00527
2217.97909	1.00536
2217.01475	1.00526
2216.05041	1.00520
2215.08607	1.00527
2214.12173	1.00529
2213.15739	1.00532
2212.19305	1.00548
2211.22871	1.00561
2210.26438	1.00562
2209.30004	1.00563
2208.33570	1.00564
2207.37136	1.00559
2206.40702	1.00550
2205.44268	1.00540
2204.47834	1.00538
2203.51400	1.00554
2202.54967	1.00579
2201.58533	1.00593
2200.62099	1.00589
2199.65665	1.00578
2198.69231	1.00570
2197.72797	1.00571
2196.76363	1.00581
2195.79929	1.00590
2194.83496	1.00598
2193.87062	1.00612
2192.90628	1.00612
2191.94194	1.00592
2190.97760	1.00588
2190.01326	1.00603
2189.04892	1.00618
2188.08458	1.00622
2187.12025	1.00625
2186.15591	1.00638
2185.19157	1.00653
2184.22723	1.00659
2183.26289	1.00669
2182.29855	1.00688
2181.33421	1.00697
2180.36988	1.00707
2179.40554	1.00730
2178.44120	1.00742
2177.47686	1.00736
2176.51252	1.00730
2175.54818	1.00743
2174.58384	1.00767
2173.61950	1.00774
2172.65517	1.00760
2171.69083	1.00736
2170.72649	1.00705
2169.76215	1.00688
2168.79781	1.00708
2167.83347	1.00754
2166.86913	1.00796
2165.90479	1.00820
2164.94046	1.00841
2163.97612	1.00872
2163.01178	1.00884
2162.04744	1.00866
2161.08310	1.00852
2160.11876	1.00884
2159.15442	1.00963
2158.19008	1.01020
2157.22575	1.01017
2156.26141	1.00994
2155.29707	1.00959
2154.33273	1.00902
2153.36839	1.00852
2152.40405	1.00827
2151.43971	1.00811
2150.47537	1.00794
2149.51104	1.00779
2148.54670	1.00767
2147.58236	1.00758
2146.61802	1.00754
2145.65368	1.00744
2144.68934	1.00720
2143.72500	1.00697
2142.76066	1.00695
2141.79633	1.00699
2140.83199	1.00686
2139.86765	1.00674
2138.90331	1.00676
2137.93897	1.00675
2136.97463	1.00659
2136.01029	1.00636
2135.04595	1.00621
2134.08162	1.00621
2133.11728	1.00622
2132.15294	1.00609
2131.18860	1.00585
2130.22426	1.00556
2129.25992	1.00530
2128.29558	1.00511
2127.33124	1.00503
2126.36691	1.00502
2125.40257	1.00503
2124.43823	1.00497
2123.47389	1.00483
2122.50955	1.00477
2121.54521	1.00477
2120.58087	1.00464
2119.61653	1.00441
2118.65220	1.00430
2117.68786	1.00438
2116.72352	1.00448
2115.75918	1.00448
2114.79484	1.00436
2113.83050	1.00422
2112.86616	1.00410
2111.90183	1.00397
2110.93749	1.00383
2109.97315	1.00383
2109.00881	1.00403
2108.04447	1.00423
2107.08013	1.00430
2106.11579	1.00430
2105.15145	1.00428
2104.18712	1.00427
2103.22278	1.00432
2102.25844	1.00430
2101.29410	1.00412
2100.32976	1.00399
2099.36542	1.00401
2098.40108	1.00406
2097.43674	1.00411
2096.47241	1.00416
2095.50807	1.00422
2094.54373	1.00427
2093.57939	1.00421
2092.61505	1.00401
2091.65071	1.00381
2090.68637	1.00371
2089.72203	1.00372
2088.75770	1.00378
2087.79336	1.00385
2086.82902	1.00379
2085.86468	1.00356
2084.90034	1.00339
2083.93600	1.00349
2082.97166	1.00370
2082.00732	1.00377
2081.04299	1.00372
2080.07865	1.00367
2079.11431	1.00366
2078.14997	1.00367
2077.18563	1.00364
2076.22129	1.00358
2075.25695	1.00355
2074.29261	1.00370
2073.32828	1.00388
2072.36394	1.00384
2071.39960	1.00363
2070.43526	1.00356
2069.47092	1.00366
2068.50658	1.00370
2067.54224	1.00361
2066.57790	1.00357
2065.61357	1.00372
2064.64923	1.00385
2063.68489	1.00383
2062.72055	1.00375
2061.75621	1.00365
2060.79187	1.00353
2059.82753	1.00333
2058.86319	1.00319
2057.89886	1.00321
2056.93452	1.00331
2055.97018	1.00338
2055.00584	1.00344
2054.04150	1.00348
2053.07716	1.00345
2052.11282	1.00333
2051.14848	1.00328
2050.18415	1.00348
2049.21981	1.00378
2048.25547	1.00394
2047.29113	1.00401
2046.32679	1.00410
2045.36245	1.00420
2044.39811	1.00420
2043.43378	1.00414
2042.46944	1.00425
2041.50510	1.00441
2040.54076	1.00436
2039.57642	1.00426
2038.61208	1.00432
2037.64774	1.00445
2036.68340	1.00458
2035.71907	1.00472
2034.75473	1.00478
2033.79039	1.00478
2032.82605	1.00485
2031.86171	1.00493
2030.89737	1.00491
2029.93303	1.00479
2028.96869	1.00452
2028.00436	1.00425
2027.04002	1.00407
2026.07568	1.00383
2025.11134	1.00364
2024.14700	1.00382
2023.18266	1.00423
2022.21832	1.00436
2021.25398	1.00410
2020.28965	1.00407
2019.32531	1.00442
2018.36097	1.00465
2017.39663	1.00450
2016.43229	1.00403
2015.46795	1.00353
2014.50361	1.00325
2013.53927	1.00319
2012.57494	1.00322
2011.61060	1.00320
2010.64626	1.00324
2009.68192	1.00334
2008.71758	1.00329
2007.75324	1.00321
2006.78890	1.00323
2005.82456	1.00315
2004.86023	1.00286
2003.89589	1.00259
2002.93155	1.00251
2001.96721	1.00246
2001.00287	1.00238
2000.03853	1.00231
1999.07419	1.00223
1998.10985	1.00210
1997.14552	1.00201
1996.18118	1.00202
1995.21684	1.00194
1994.25250	1.00182
1993.28816	1.00217
1992.32382	1.00285
1991.35948	1.00292
1990.39514	1.00232
1989.43081	1.00175
1988.46647	1.00147
1987.50213	1.00138
1986.53779	1.00139
1985.57345	1.00153
1984.60911	1.00167
1983.64477	1.00166
1982.68043	1.00157
1981.71610	1.00162
1980.75176	1.00189
1979.78742	1.00221
1978.82308	1.00241
1977.85874	1.00238
1976.89440	1.00226
1975.93006	1.00229
1974.96572	1.00234
1974.00139	1.00223
1973.03705	1.00207
1972.07271	1.00201
1971.10837	1.00200
1970.14403	1.00192
1969.17969	1.00190
1968.21535	1.00214
1967.25102	1.00243
1966.28668	1.00231
1965.32234	1.00194
1964.35800	1.00162
1963.39366	1.00130
1962.42932	1.00104
1961.46498	1.00092
1960.50064	1.00098
1959.53631	1.00117
1958.57197	1.00125
1957.60763	1.00107
1956.64329	1.00086
1955.67895	1.00074
1954.71461	1.00055
1953.75027	1.00028
1952.78593	1.00012
1951.82160	1.00008
1950.85726	0.99999
1949.89292	0.99988
1948.92858	0.99987
1947.96424	0.99999
1946.99990	1.00017
1946.03556	1.00022
1945.07122	1.00009
1944.10689	1.00009
1943.14255	1.00039
1942.17821	1.00052
1941.21387	1.00016
1940.24953	0.99972
1939.28519	0.99944
1938.32085	0.99922
1937.35651	0.99902
1936.39218	0.99895
1935.42784	0.99902
1934.46350	0.99908
1933.49916	0.99899
1932.53482	0.99886
1931.57048	0.99874
1930.60614	0.99860
1929.64180	0.99851
1928.67747	0.99848
1927.71313	0.99843
1926.74879	0.99836
1925.78445	0.99830
1924.82011	0.99834
1923.85577	0.99857
1922.89143	0.99871
1921.92709	0.99843
1920.96276	0.99805
1919.99842	0.99794
1919.03408	0.99818
1918.06974	0.99840
1917.10540	0.99808
1916.14106	0.99760
1915.17672	0.99735
1914.21238	0.99720
1913.24805	0.99702
1912.28371	0.99689
1911.31937	0.99696
1910.35503	0.99719
1909.39069	0.99723
1908.42635	0.99700
1907.46201	0.99669
1906.49767	0.99643
1905.53334	0.99627
1904.56900	0.99619
1903.60466	0.99604
1902.64032	0.99582
1901.67598	0.99567
1900.71164	0.99567
1899.74730	0.99573
1898.78297	0.99573
1897.81863	0.99568
1896.85429	0.99567
1895.88995	0.99569
1894.92561	0.99555
1893.96127	0.99523
1892.99693	0.99496
1892.03259	0.99483
1891.06826	0.99494
1890.10392	0.99522
1889.13958	0.99514
1888.17524	0.99467
1887.21090	0.99433
1886.24656	0.99425
1885.28222	0.99434
1884.31788	0.99439
1883.35355	0.99430
1882.38921	0.99412
1881.42487	0.99400
1880.46053	0.99396
1879.49619	0.99394
1878.53185	0.99391
1877.56751	0.99382
1876.60317	0.99373
1875.63884	0.99374
1874.67450	0.99379
1873.71016	0.99383
1872.74582	0.99390
1871.78148	0.99406
1870.81714	0.99437
1869.85280	0.99488
1868.88846	0.99527
1867.92413	0.99511
1866.95979	0.99465
1865.99545	0.99422
1865.03111	0.99387
1864.06677	0.99361
1863.10243	0.99349
1862.13809	0.99356
1861.17375	0.99371
1860.20942	0.99377
1859.24508	0.99374
1858.28074	0.99374
1857.31640	0.99381
1856.35206	0.99386
1855.38772	0.99388
1854.42338	0.99392
1853.45904	0.99397
1852.49471	0.99396
1851.53037	0.99395
1850.56603	0.99402
1849.60169	0.99415
1848.63735	0.99431
1847.67301	0.99441
1846.70867	0.99443
1845.74433	0.99471
1844.78000	0.99537
1843.81566	0.99555
1842.85132	0.99504
1841.88698	0.99469
1840.92264	0.99461
1839.95830	0.99465
1838.99396	0.99476
1838.02962	0.99499
1837.06529	0.99515
1836.10095	0.99502
1835.13661	0.99482
1834.17227	0.99480
1833.20793	0.99483
1832.24359	0.99491
1831.27925	0.99529
1830.31492	0.99601
1829.35058	0.99622
1828.38624	0.99564
1827.42190	0.99525
1826.45756	0.99537
1825.49322	0.99573
1824.52888	0.99575
1823.56454	0.99552
1822.60021	0.99538
1821.63587	0.99539
1820.67153	0.99545
1819.70719	0.99551
1818.74285	0.99558
1817.77851	0.99573
1816.81417	0.99585
1815.84983	0.99582
1814.88550	0.99571
1813.92116	0.99570
1812.95682	0.99587
1811.99248	0.99617
1811.02814	0.99637
1810.06380	0.99625
1809.09946	0.99602
1808.13512	0.99592
1807.17079	0.99587
1806.20645	0.99583
1805.24211	0.99585
1804.27777	0.99596
1803.31343	0.99621
1802.34909	0.99652
1801.38475	0.99670
1800.42041	0.99676
1799.45608	0.99672
1798.49174	0.99654
1797.52740	0.99650
1796.56306	0.99662
1795.59872	0.99664
1794.63438	0.99664
1793.67004	0.99701
1792.70570	0.99771
1791.74137	0.99783
1790.77703	0.99727
1789.81269	0.99670
1788.84835	0.99641
1787.88401	0.99633
1786.91967	0.99636
1785.95533	0.99643
1784.99099	0.99646
1784.02666	0.99641
1783.06232	0.99640
1782.09798	0.99653
1781.13364	0.99674
1780.16930	0.99677
1779.20496	0.99661
1778.24062	0.99652
1777.27628	0.99660
1776.31195	0.99674
1775.34761	0.99684
1774.38327	0.99698
1773.41893	0.99743
1772.45459	0.99806
1771.49025	0.99787
1770.52591	0.99723
1769.56157	0.99698
1768.59724	0.99705
1767.63290	0.99694
1766.66856	0.99663
1765.70422	0.99644
1764.73988	0.99640
1763.77554	0.99652
1762.81120	0.99686
1761.84687	0.99717
1760.88253	0.99700
1759.91819	0.99673
1758.95385	0.99668
1757.98951	0.99681
1757.02517	0.99694
1756.06083	0.99679
1755.09649	0.99654
1754.13216	0.99646
1753.16782	0.99662
1752.20348	0.99703
1751.23914	0.99736
1750.27480	0.99730
1749.31046	0.99729
1748.34612	0.99736
1747.38178	0.99724
1746.41745	0.99704
1745.45311	0.99694
1744.48877	0.99702
1743.52443	0.99713
1742.56009	0.99698
1741.59575	0.99688
1740.63141	0.99713
1739.66707	0.99729
1738.70274	0.99690
1737.73840	0.99653
1736.77406	0.99651
1735.80972	0.99698
1734.84538	0.99803
1733.88104	0.99843
1732.91670	0.99732
1731.95236	0.99672
1730.98803	0.99669
1730.02369	0.99673
1729.05935	0.99646
1728.09501	0.99616
1727.13067	0.99605
1726.16633	0.99608
1725.20199	0.99621
1724.23765	0.99637
1723.27332	0.99636
1722.30898	0.99616
1721.34464	0.99606
1720.38030	0.99623
1719.41596	0.99679
1718.45162	0.99774
1717.48728	0.99804
1716.52294	0.99768
1715.55861	0.99766
1714.59427	0.99742
1713.62993	0.99670
1712.66559	0.99617
1711.70125	0.99607
1710.73691	0.99617
1709.77257	0.99609
1708.80823	0.99592
1707.84390	0.99611
1706.87956	0.99666
1705.91522	0.99696
1704.95088	0.99681
1703.98654	0.99655
1703.02220	0.99645
1702.05786	0.99681
1701.09352	0.99805
1700.12919	0.99907
1699.16485	0.99769
1698.20051	0.99704
1697.23617	0.99723
1696.27183	0.99762
1695.30749	0.99693
1694.34315	0.99602
1693.37881	0.99559
1692.41448	0.99540
1691.45014	0.99542
1690.48580	0.99564
1689.52146	0.99586
1688.55712	0.99582
1687.59278	0.99560
1686.62844	0.99562
1685.66411	0.99639
1684.69977	0.99833
1683.73543	0.99818
1682.77109	0.99627
1681.80675	0.99557
1680.84241	0.99548
1679.87807	0.99527
1678.91373	0.99488
1677.94940	0.99469
1676.98506	0.99485
1676.02072	0.99534
1675.05638	0.99545
1674.09204	0.99488
1673.12770	0.99463
1672.16336	0.99472
1671.19902	0.99482
1670.23469	0.99496
1669.27035	0.99504
1668.30601	0.99455
1667.34167	0.99402
1666.37733	0.99375
1665.41299	0.99366
1664.44865	0.99389
1663.48431	0.99446
1662.51998	0.99461
1661.55564	0.99396
1660.59130	0.99342
1659.62696	0.99322
1658.66262	0.99319
1657.69828	0.99324
1656.73394	0.99339
1655.76960	0.99383
1654.80527	0.99503
1653.84093	0.99786
1652.87659	0.99899
1651.91225	0.99581
1650.94791	0.99427
1649.98357	0.99385
1649.01923	0.99420
1648.05489	0.99518
1647.09056	0.99596
1646.12622	0.99539
1645.16188	0.99425
1644.19754	0.99367
1643.23320	0.99354
1642.26886	0.99357
1641.30452	0.99356
1640.34018	0.99350
1639.37585	0.99354
1638.41151	0.99386
1637.44717	0.99453
1636.48283	0.99547
1635.51849	0.99589
1634.55415	0.99471
1633.58981	0.99380
1632.62547	0.99351
1631.66114	0.99348
1630.69680	0.99350
1629.73246	0.99359
1628.76812	0.99379
1627.80378	0.99393
1626.83944	0.99378
1625.87510	0.99368
1624.91076	0.99394
1623.94643	0.99449
1622.98209	0.99462
1622.01775	0.99420
1621.05341	0.99395
1620.08907	0.99389
1619.12473	0.99392
1618.16039	0.99424
1617.19606	0.99493
1616.23172	0.99496
1615.26738	0.99433
1614.30304	0.99398
1613.33870	0.99384
1612.37436	0.99377
1611.41002	0.99375
1610.44568	0.99379
1609.48135	0.99383
1608.51701	0.99387
1607.55267	0.99395
1606.58833	0.99401
1605.62399	0.99401
1604.65965	0.99403
1603.69531	0.99411
1602.73097	0.99420
1601.76664	0.99425
1600.80230	0.99425
1599.83796	0.99420
1598.87362	0.99416
1597.90928	0.99419
1596.94494	0.99430
1595.98060	0.99444
1595.01626	0.99454
1594.05193	0.99452
1593.08759	0.99442
1592.12325	0.99439
1591.15891	0.99443
1590.19457	0.99452
1589.23023	0.99457
1588.26589	0.99457
1587.30155	0.99459
1586.33722	0.99463
1585.37288	0.99470
1584.40854	0.99477
1583.44420	0.99480
1582.47986	0.99482
1581.51552	0.99486
1580.55118	0.99492
1579.58684	0.99496
1578.62251	0.99513
1577.65817	0.99565
1576.69383	0.99647
1575.72949	0.99632
1574.76515	0.99549
1573.80081	0.99508
1572.83647	0.99495
1571.87213	0.99507
1570.90780	0.99558
1569.94346	0.99641
1568.97912	0.99644
1568.01478	0.99573
1567.05044	0.99534
1566.08610	0.99537
1565.12176	0.99559
1564.15742	0.99561
1563.19309	0.99547
1562.22875	0.99552
1561.26441	0.99604
1560.30007	0.99759
1559.33573	1.00064
1558.37139	1.00032
1557.40705	0.99759
1556.44271	0.99633
1555.47838	0.99598
1554.51404	0.99601
1553.54970	0.99579
1552.58536	0.99547
1551.62102	0.99542
1550.65668	0.99567
1549.69234	0.99576
1548.72801	0.99549
1547.76367	0.99533
1546.79933	0.99555
1545.83499	0.99615
1544.87065	0.99678
1543.90631	0.99708
1542.94197	0.99739
1541.97763	0.99775
1541.01330	0.99797
1540.04896	0.99838
1539.08462	0.99774
1538.12028	0.99645
1537.15594	0.99581
1536.19160	0.99561
1535.22726	0.99577
1534.26292	0.99631
1533.29859	0.99655
1532.33425	0.99602
1531.36991	0.99547
1530.40557	0.99519
1529.44123	0.99531
1528.47689	0.99582
1527.51255	0.99629
1526.54821	0.99649
1525.58388	0.99647
1524.61954	0.99611
1523.65520	0.99595
1522.69086	0.99652
1521.72652	0.99755
1520.76218	0.99719
1519.79784	0.99600
1518.83350	0.99564
1517.86917	0.99612
1516.90483	0.99666
1515.94049	0.99615
1514.97615	0.99544
1514.01181	0.99509
1513.04747	0.99514
1512.08313	0.99534
1511.11879	0.99547
1510.15446	0.99576
1509.19012	0.99641
1508.22578	0.99758
1507.26144	0.99936
1506.29710	0.99911
1505.33276	0.99649
1504.36842	0.99512
1503.40408	0.99469
1502.43975	0.99467
1501.47541	0.99475
1500.51107	0.99488
1499.54673	0.99515
1498.58239	0.99532
1497.61805	0.99534
1496.65371	0.99547
1495.68937	0.99529
1494.72504	0.99479
1493.76070	0.99446
1492.79636	0.99443
1491.83202	0.99474
1490.86768	0.99540
1489.90334	0.99581
1488.93900	0.99551
1487.97466	0.99517
1487.01033	0.99485
1486.04599	0.99450
1485.08165	0.99431
1484.11731	0.99424
1483.15297	0.99423
1482.18863	0.99431
1481.22429	0.99434
1480.25996	0.99423
1479.29562	0.99414
1478.33128	0.99421
1477.36694	0.99449
1476.40260	0.99484
1475.43826	0.99496
1474.47392	0.99519
1473.50958	0.99584
1472.54525	0.99613
1471.58091	0.99515
1470.61657	0.99420
1469.65223	0.99382
1468.68789	0.99381
1467.72355	0.99391
1466.75921	0.99410
1465.79487	0.99448
1464.83054	0.99470
1463.86620	0.99435
1462.90186	0.99398
1461.93752	0.99383
1460.97318	0.99390
1460.00884	0.99425
1459.04450	0.99496
1458.08016	0.99591
1457.11583	0.99634
1456.15149	0.99548
1455.18715	0.99451
1454.22281	0.99393
1453.25847	0.99363
1452.29413	0.99352
1451.32979	0.99346
1450.36545	0.99346
1449.40112	0.99361
1448.43678	0.99382
1447.47244	0.99376
1446.50810	0.99351
1445.54376	0.99335
1444.57942	0.99327
1443.61508	0.99324
1442.65074	0.99322
1441.68641	0.99322
1440.72207	0.99327
1439.75773	0.99336
1438.79339	0.99350
1437.82905	0.99383
1436.86471	0.99421
1435.90037	0.99390
1434.93603	0.99342
1433.97170	0.99327
1433.00736	0.99328
1432.04302	0.99335
1431.07868	0.99348
1430.11434	0.99355
1429.15000	0.99335
1428.18566	0.99309
1427.22132	0.99302
1426.25699	0.99309
1425.29265	0.99331
1424.32831	0.99358
1423.36397	0.99353
1422.39963	0.99319
1421.43529	0.99306
1420.47095	0.99336
1419.50661	0.99392
1418.54228	0.99387
1417.57794	0.99342
1416.61360	0.99309
1415.64926	0.99288
1414.68492	0.99272
1413.72058	0.99263
1412.75624	0.99265
1411.79190	0.99270
1410.82757	0.99268
1409.86323	0.99261
1408.89889	0.99253
1407.93455	0.99248
1406.97021	0.99249
1406.00587	0.99261
1405.04153	0.99276
1404.07720	0.99274
1403.11286	0.99258
1402.14852	0.99241
1401.18418	0.99234
1400.21984	0.99246
1399.25550	0.99270
1398.29116	0.99272
1397.32682	0.99260
1396.36249	0.99265
1395.39815	0.99282
1394.43381	0.99268
1393.46947	0.99223
1392.50513	0.99190
1391.54079	0.99177
1390.57645	0.99171
1389.61211	0.99171
1388.64778	0.99191
1387.68344	0.99223
1386.71910	0.99224
1385.75476	0.99199
1384.79042	0.99178
1383.82608	0.99166
1382.86174	0.99158
1381.89740	0.99151
1380.93307	0.99145
1379.96873	0.99142
1379.00439	0.99141
1378.04005	0.99137
1377.07571	0.99134
1376.11137	0.99138
1375.14703	0.99150
1374.18269	0.99152
1373.21836	0.99130
1372.25402	0.99104
1371.28968	0.99089
1370.32534	0.99084
1369.36100	0.99088
1368.39666	0.99088
1367.43232	0.99081
1366.46798	0.99075
1365.50365	0.99070
1364.53931	0.99075
1363.57497	0.99094
1362.61063	0.99099
1361.64629	0.99076
1360.68195	0.99047
1359.71761	0.99023
1358.75327	0.99006
1357.78894	0.98990
1356.82460	0.98979
1355.86026	0.98979
1354.89592	0.98980
1353.93158	0.98967
1352.96724	0.98945
1352.00290	0.98930
1351.03856	0.98923
1350.07423	0.98913
1349.10989	0.98901
1348.14555	0.98891
1347.18121	0.98881
1346.21687	0.98870
1345.25253	0.98855
1344.28819	0.98842
1343.32385	0.98836
1342.35952	0.98834
1341.39518	0.98842
1340.43084	0.98853
1339.46650	0.98843
1338.50216	0.98816
1337.53782	0.98791
1336.57348	0.98768
1335.60915	0.98745
1334.64481	0.98726
1333.68047	0.98711
1332.71613	0.98695
1331.75179	0.98680
1330.78745	0.98669
1329.82311	0.98652
1328.85877	0.98632
1327.89444	0.98617
1326.93010	0.98603
1325.96576	0.98586
1325.00142	0.98568
1324.03708	0.98547
1323.07274	0.98530
1322.10840	0.98515
1321.14406	0.98497
1320.17973	0.98475
1319.21539	0.98452
1318.25105	0.98426
1317.28671	0.98399
1316.32237	0.98372
1315.35803	0.98344
1314.39369	0.98317
1313.42935	0.98294
1312.46502	0.98269
1311.50068	0.98240
1310.53634	0.98208
1309.57200	0.98175
1308.60766	0.98141
1307.64332	0.98108
1306.67898	0.98073
1305.71464	0.98038
1304.75031	0.98007
1303.78597	0.97976
1302.82163	0.97942
1301.85729	0.97902
1300.89295	0.97853
1299.92861	0.97806
1298.96427	0.97768
1297.99993	0.97732
1297.03560	0.97693
1296.07126	0.97646
1295.10692	0.97589
1294.14258	0.97533
1293.17824	0.97482
1292.21390	0.97433
1291.24956	0.97377
1290.28522	0.97314
1289.32089	0.97251
1288.35655	0.97192
1287.39221	0.97124
1286.42787	0.97048
1285.46353	0.96972
1284.49919	0.96895
1283.53485	0.96813
1282.57051	0.96724
1281.60618	0.96634
1280.64184	0.96541
1279.67750	0.96443
1278.71316	0.96343
1277.74882	0.96241
1276.78448	0.96128
1275.82014	0.95996
1274.85580	0.95853
1273.89147	0.95706
1272.92713	0.95555
1271.96279	0.95395
1270.99845	0.95221
1270.03411	0.95039
1269.06977	0.94848
1268.10543	0.94647
1267.14110	0.94435
1266.17676	0.94211
1265.21242	0.93975
1264.24808	0.93729
1263.28374	0.93474
1262.31940	0.93213
1261.35506	0.92952
1260.39072	0.92680
1259.42639	0.92393
1258.46205	0.92097
1257.49771	0.91800
1256.53337	0.91507
1255.56903	0.91216
1254.60469	0.90919
1253.64035	0.90613
1252.67601	0.90301
1251.71168	0.89988
1250.74734	0.89676
1249.78300	0.89362
1248.81866	0.89043
1247.85432	0.88723
1246.88998	0.88396
1245.92564	0.88069
1244.96130	0.87746
1243.99697	0.87422
1243.03263	0.87095
1242.06829	0.86766
1241.10395	0.86438
1240.13961	0.86114
1239.17527	0.85794
1238.21093	0.85469
1237.24659	0.85140
1236.28226	0.84815
1235.31792	0.84495
1234.35358	0.84171
1233.38924	0.83845
1232.42490	0.83525
1231.46056	0.83207
1230.49622	0.82888
1229.53188	0.82572
1228.56755	0.82262
1227.60321	0.81957
1226.63887	0.81651
1225.67453	0.81341
1224.71019	0.81031
1223.74585	0.80726
1222.78151	0.80423
1221.81717	0.80127
1220.85284	0.79839
1219.88850	0.79551
1218.92416	0.79260
1217.95982	0.78970
1216.99548	0.78683
1216.03114	0.78401
1215.06680	0.78124
1214.10246	0.77858
1213.13813	0.77596
1212.17379	0.77331
1211.20945	0.77063
1210.24511	0.76804
1209.28077	0.76553
1208.31643	0.76301
1207.35209	0.76053
1206.38775	0.75811
1205.42342	0.75569
1204.45908	0.75326
1203.49474	0.75097
1202.53040	0.74874
1201.56606	0.74647
1200.60172	0.74414
1199.63738	0.74184
1198.67305	0.73963
1197.70871	0.73749
1196.74437	0.73536
1195.78003	0.73325
1194.81569	0.73113
1193.85135	0.72901
1192.88701	0.72694
1191.92267	0.72488
1190.95834	0.72278
1189.99400	0.72067
1189.02966	0.71859
1188.06532	0.71654
1187.10098	0.71452
1186.13664	0.71249
1185.17230	0.71049
1184.20796	0.70850
1183.24363	0.70649
1182.27929	0.70442
1181.31495	0.70237
1180.35061	0.70036
1179.38627	0.69836
1178.42193	0.69633
1177.45759	0.69427
1176.49325	0.69220
1175.52892	0.69012
1174.56458	0.68801
1173.60024	0.68591
1172.63590	0.68385
1171.67156	0.68177
1170.70722	0.67968
1169.74288	0.67753
1168.77854	0.67534
1167.81421	0.67315
1166.84987	0.67097
1165.88553	0.66877
1164.92119	0.66655
1163.95685	0.66433
1162.99251	0.66206
1162.02817	0.65976
1161.06383	0.65747
1160.09950	0.65513
1159.13516	0.65273
1158.17082	0.65028
1157.20648	0.64777
1156.24214	0.64520
1155.27780	0.64259
1154.31346	0.63999
1153.34912	0.63733
1152.38479	0.63458
1151.42045	0.63174
1150.45611	0.62875
1149.49177	0.62559
1148.52743	0.62232
1147.56309	0.61897
1146.59875	0.61549
1145.63441	0.61188
1144.67008	0.60809
1143.70574	0.60408
1142.74140	0.59986
1141.77706	0.59541
1140.81272	0.59066
1139.84838	0.58561
1138.88404	0.58036
1137.91970	0.57493
1136.95537	0.56922
1135.99103	0.56316
1135.02669	0.55678
1134.06235	0.55013
1133.09801	0.54323
1132.13367	0.53603
1131.16933	0.52846
1130.20499	0.52057
1129.24066	0.51247
1128.27632	0.50418
1127.31198	0.49569
1126.34764	0.48702
1125.38330	0.47829
1124.41896	0.46953
1123.45462	0.46072
1122.49029	0.45176
1121.52595	0.44272
1120.56161	0.43364
1119.59727	0.42445
1118.63293	0.41519
1117.66859	0.40587
1116.70425	0.39649
1115.73991	0.38710
1114.77558	0.37780
1113.81124	0.36870
1112.84690	0.35989
1111.88256	0.35143
1110.91822	0.34333
1109.95388	0.33568
1108.98954	0.32850
1108.02520	0.32173
1107.06087	0.31538
1106.09653	0.30945
1105.13219	0.30392
1104.16785	0.29872
1103.20351	0.29383
1102.23917	0.28927
1101.27483	0.28503
1100.31049	0.28103
1099.34616	0.27721
1098.38182	0.27359
1097.41748	0.27019
1096.45314	0.26696
1095.48880	0.26386
1094.52446	0.26091
1093.56012	0.25803
1092.59578	0.25515
1091.63145	0.25232
1090.66711	0.24965
1089.70277	0.24722
1088.73843	0.24491
1087.77409	0.24269
1086.80975	0.24059
1085.84541	0.23860
1084.88107	0.23669
1083.91674	0.23488
1082.95240	0.23317
1081.98806	0.23147
1081.02372	0.22975
1080.05938	0.22807
1079.09504	0.22648
1078.13070	0.22494
1077.16636	0.22345
1076.20203	0.22200
1075.23769	0.22062
1074.27335	0.21931
1073.30901	0.21802
1072.34467	0.21676
1071.38033	0.21552
1070.41599	0.21432
1069.45165	0.21320
1068.48732	0.21212
1067.52298	0.21109
1066.55864	0.21015
1065.59430	0.20928
1064.62996	0.20839
1063.66562	0.20752
1062.70128	0.20669
1061.73694	0.20586
1060.77261	0.20507
1059.80827	0.20440
1058.84393	0.20385
1057.87959	0.20329
1056.91525	0.20269
1055.95091	0.20213
1054.98657	0.20163
1054.02224	0.20122
1053.05790	0.20090
1052.09356	0.20063
1051.12922	0.20030
1050.16488	0.20003
1049.20054	0.19988
1048.23620	0.19981
1047.27186	0.19979
1046.30753	0.19987
1045.34319	0.19999
1044.37885	0.20010
1043.41451	0.20025
1042.45017	0.20054
1041.48583	0.20097
1040.52149	0.20145
1039.55715	0.20195
1038.59282	0.20258
1037.62848	0.20333
1036.66414	0.20414
1035.69980	0.20503
1034.73546	0.20610
1033.77112	0.20730
1032.80678	0.20860
1031.84244	0.21009
1030.87811	0.21178
1029.91377	0.21364
1028.94943	0.21568
1027.98509	0.21786
1027.02075	0.22021
1026.05641	0.22279
1025.09207	0.22568
1024.12773	0.22886
1023.16340	0.23234
1022.19906	0.23611
1021.23472	0.24016
1020.27038	0.24451
1019.30604	0.24919
1018.34170	0.25420
1017.37736	0.25957
1016.41302	0.26537
1015.44869	0.27159
1014.48435	0.27817
1013.52001	0.28513
1012.55567	0.29263
1011.59133	0.30060
1010.62699	0.30891
1009.66265	0.31754
1008.69831	0.32654
1007.73398	0.33592
1006.76964	0.34566
1005.80530	0.35573
1004.84096	0.36612
1003.87662	0.37683
1002.91228	0.38781
1001.94794	0.39906
1000.98360	0.41057
1000.01927	0.42216
999.05493	0.43378
998.09059	0.44550
997.12625	0.45736
996.16191	0.46928
995.19757	0.48109
994.23323	0.49279
993.26889	0.50443
992.30456	0.51600
991.34022	0.52744
990.37588	0.53873
989.41154	0.54986
988.44720	0.56082
987.48286	0.57157
986.51852	0.58210
985.55419	0.59242
984.58985	0.60250
983.62551	0.61239
982.66117	0.62210
981.69683	0.63160
980.73249	0.64082
979.76815	0.64976
978.80381	0.65849
977.83948	0.66705
976.87514	0.67542
975.91080	0.68363
974.94646	0.69164
973.98212	0.69944
973.01778	0.70698
972.05344	0.71431
971.08910	0.72151
970.12477	0.72860
969.16043	0.73553
968.19609	0.74224
967.23175	0.74874
966.26741	0.75506
965.30307	0.76124
964.33873	0.76728
963.37439	0.77321
962.41006	0.77903
961.44572	0.78467
960.48138	0.79010
959.51704	0.79540
958.55270	0.80064
957.58836	0.80584
956.62402	0.81095
955.65968	0.81590
954.69535	0.82066
953.73101	0.82526
952.76667	0.82969
951.80233	0.83399
950.83799	0.83824
949.87365	0.84241
948.90931	0.84654
947.94497	0.85070
946.98064	0.85476
946.01630	0.85858
945.05196	0.86224
944.08762	0.86590
943.12328	0.86946
942.15894	0.87292
941.19460	0.87632
940.23026	0.87952
939.26593	0.88261
938.30159	0.88579
937.33725	0.88893
936.37291	0.89182
935.40857	0.89448
934.44423	0.89714
933.47989	0.89978
932.51555	0.90232
931.55122	0.90479
930.58688	0.90710
929.62254	0.90926
928.65820	0.91144
927.69386	0.91369
926.72952	0.91584
925.76518	0.91784
924.80084	0.91976
923.83651	0.92157
922.87217	0.92332
921.90783	0.92515
920.94349	0.92701
919.97915	0.92865
919.01481	0.93003
918.05047	0.93137
917.08613	0.93275
916.12180	0.93410
915.15746	0.93537
914.19312	0.93656
913.22878	0.93767
912.26444	0.93875
911.30010	0.93977
910.33576	0.94080
909.37143	0.94192
908.40709	0.94300
907.44275	0.94394
906.47841	0.94471
905.51407	0.94533
904.54973	0.94588
903.58539	0.94647
902.62105	0.94717
901.65672	0.94786
900.69238	0.94840
899.72804	0.94887
898.76370	0.94941
897.79936	0.94994
896.83502	0.95029
895.87068	0.95060
894.90634	0.95098
893.94201	0.95137
892.97767	0.95172
892.01333	0.95196
891.04899	0.95207
890.08465	0.95207
889.12031	0.95204
888.15597	0.95208
887.19163	0.95223
886.22730	0.95240
885.26296	0.95245
884.29862	0.95242
883.33428	0.95239
882.36994	0.95229
881.40560	0.95212
880.44126	0.95191
879.47692	0.95161
878.51259	0.95120
877.54825	0.95074
876.58391	0.95017
875.61957	0.94942
874.65523	0.94850
873.69089	0.94745
872.72655	0.94620
871.76221	0.94474
870.79788	0.94316
869.83354	0.94146
868.86920	0.93950
867.90486	0.93718
866.94052	0.93462
865.97618	0.93187
865.01184	0.92890
864.04750	0.92569
863.08317	0.92214
862.11883	0.91830
861.15449	0.91430
860.19015	0.91001
859.22581	0.90537
858.26147	0.90060
857.29713	0.89574
856.33279	0.89066
855.36846	0.88545
854.40412	0.88023
853.43978	0.87500
852.47544	0.86975
851.51110	0.86451
850.54676	0.85928
849.58242	0.85402
848.61808	0.84871
847.65375	0.84332
846.68941	0.83789
845.72507	0.83250
844.76073	0.82724
843.79639	0.82205
842.83205	0.81695
841.86771	0.81191
840.90338	0.80681
839.93904	0.80163
838.97470	0.79644
838.01036	0.79132
837.04602	0.78635
836.08168	0.78157
835.11734	0.77685
834.15300	0.77204
833.18867	0.76716
832.22433	0.76227
831.25999	0.75744
830.29565	0.75275
829.33131	0.74817
828.36697	0.74360
827.40263	0.73901
826.43829	0.73453
825.47396	0.73019
824.50962	0.72590
823.54528	0.72176
822.58094	0.71778
821.61660	0.71378
820.65226	0.70977
819.68792	0.70595
818.72358	0.70238
817.75925	0.69891
816.79491	0.69551
815.83057	0.69225
814.86623	0.68917
813.90189	0.68620
812.93755	0.68346
811.97321	0.68110
811.00887	0.67894
810.04454	0.67670
809.08020	0.67443
808.11586	0.67238
807.15152	0.67066
806.18718	0.66913
805.22284	0.66781
804.25850	0.66681
803.29416	0.66612
802.32983	0.66565
801.36549	0.66544
800.40115	0.66542
799.43681	0.66554
798.47247	0.66583
797.50813	0.66634
796.54379	0.66714
795.57945	0.66822
794.61512	0.66954
793.65078	0.67116
792.68644	0.67316
791.72210	0.67542
790.75776	0.67800
789.79342	0.68103
788.82908	0.68444
787.86474	0.68814
786.90041	0.69215
785.93607	0.69653
784.97173	0.70129
784.00739	0.70646
783.04305	0.71216
782.07871	0.71836
781.11437	0.72491
780.15003	0.73185
779.18570	0.73918
778.22136	0.74683
777.25702	0.75501
776.29268	0.76392
775.32834	0.77336
774.36400	0.78298
773.39966	0.79256
772.43533	0.80198
771.47099	0.81108
770.50665	0.81981
769.54231	0.82809
768.57797	0.83566
767.61363	0.84224
766.64929	0.84779
765.68495	0.85249
764.72062	0.85644
763.75628	0.85962
762.79194	0.86213
761.82760	0.86412
760.86326	0.86574
759.89892	0.86708
758.93458	0.86834
757.97024	0.86972
757.00591	0.87114
756.04157	0.87228
755.07723	0.87304
754.11289	0.87360
753.14855	0.87417
752.18421	0.87487
751.21987	0.87576
750.25553	0.87664
749.29120	0.87739
748.32686	0.87803
747.36252	0.87859
746.39818	0.87930
745.43384	0.88021
744.46950	0.88099
743.50516	0.88153
742.54082	0.88193
741.57649	0.88247
740.61215	0.88317
739.64781	0.88374
738.68347	0.88418
737.71913	0.88480
736.75479	0.88565
735.79045	0.88655
734.82611	0.88740
733.86178	0.88821
732.89744	0.88900
731.93310	0.88973
730.96876	0.89031
730.00442	0.89086
729.04008	0.89137
728.07574	0.89177
727.11140	0.89234
726.14707	0.89311
725.18273	0.89369
724.21839	0.89415
723.25405	0.89460
722.28971	0.89505
721.32537	0.89555
720.36103	0.89600
719.39669	0.89628
718.43236	0.89646
717.46802	0.89666
716.50368	0.89699
715.53934	0.89745
714.57500	0.89791
713.61066	0.89832
712.64632	0.89869
711.68198	0.89891
710.71765	0.89908
709.75331	0.89950
708.78897	0.90009
707.82463	0.90056
706.86029	0.90096
705.89595	0.90138
704.93161	0.90154
703.96728	0.90140
703.00294	0.90140
702.03860	0.90163
701.07426	0.90193
700.10992	0.90228
699.14558	0.90243
698.18124	0.90226
697.21690	0.90216
696.25257	0.90233
695.28823	0.90266
694.32389	0.90292
693.35955	0.90287
692.39521	0.90274
691.43087	0.90305
690.46653	0.90367
689.50219	0.90399
688.53786	0.90395
687.57352	0.90399
686.60918	0.90411
685.64484	0.90396
684.68050	0.90372
683.71616	0.90374
682.75182	0.90395
681.78748	0.90402
680.82315	0.90388
679.85881	0.90375
678.89447	0.90377
677.93013	0.90381
676.96579	0.90378
676.00145	0.90355
675.03711	0.90293
674.07277	0.90219
673.10844	0.90179
672.14410	0.90180
671.17976	0.90192
670.21542	0.90220
669.25108	0.90391
668.28674	0.90720
667.32240	0.90512
666.35806	0.90199
665.39373	0.90059
664.42939	0.90009
663.46505	0.90035
662.50071	0.90090
661.53637	0.90096
660.57203	0.90062
659.60769	0.90051
658.64335	0.90078
657.67902	0.90077
656.71468	0.90012
655.75034	0.89996
654.78600	0.90066
653.82166	0.90077
652.85732	0.89984
651.89298	0.89896
650.92864	0.89844
649.96431	0.89791
648.99997	0.89747
648.03563	0.89736
647.07129	0.89757
646.10695	0.89774
645.14261	0.89773
644.17827	0.89809
643.21393	0.89867
642.24960	0.89848
641.28526	0.89812
640.32092	0.89871
639.35658	0.89925
638.39224	0.89854
637.42790	0.89733
636.46356	0.89665
635.49922	0.89614
634.53489	0.89540
633.57055	0.89511
632.60621	0.89541
631.64187	0.89567
630.67753	0.89556
629.71319	0.89496
628.74885	0.89442
627.78452	0.89447
626.82018	0.89459
625.85584	0.89477
624.89150	0.89474
623.92716	0.89391
622.96282	0.89394
621.99848	0.89447
621.03414	0.89310
620.06981	0.89135
619.10547	0.89176
618.14113	0.89424
617.17679	0.89599
616.21245	0.89454
615.24811	0.89208
614.28377	0.89119
613.31943	0.89136
612.35510	0.89056
611.39076	0.88783
610.42642	0.88429
609.46208	0.88238
608.49774	0.88217
607.53340	0.88122
606.56906	0.88033
605.60472	0.88084
604.64039	0.88068
603.67605	0.87962
602.71171	0.88088
601.74737	0.88433
600.78303	0.88430
599.81869	0.87890
598.85435	0.87413
597.89001	0.87403
596.92568	0.87605
595.96134	0.87644
594.99700	0.87411
594.03266	0.87133
593.06832	0.87170
592.10398	0.87480
591.13964	0.87689
590.17530	0.87644
589.21097	0.87510
588.24663	0.87542
587.28229	0.87684
586.31795	0.87798
585.35361	0.87997
584.38927	0.88192
583.42493	0.88089
582.46059	0.87838
581.49626	0.87806
580.53192	0.87999
579.56758	0.88387
578.60324	0.88686
577.63890	0.88195
576.67456	0.87097
575.71022	0.86393
574.74588	0.86389
573.78155	0.86805
572.81721	0.87318
571.85287	0.87375
570.88853	0.87222
569.92419	0.87405
568.95985	0.87571
567.99551	0.87766
567.03117	0.88001
566.06684	0.87703
565.10250	0.87312
564.13816	0.87486
563.17382	0.87889
562.20948	0.87986
561.24514	0.87695
560.28080	0.87048
559.31647	0.86305
558.35213	0.86250
557.38779	0.86914
556.42345	0.87346
555.45911	0.87427
554.49477	0.87536
553.53043	0.87638
552.56609	0.87971
551.60176	0.88525
550.63742	0.88827
549.67308	0.88999
548.70874	0.89827
547.74440	0.91119
546.78006	0.91358
545.81572	0.90637
544.85138	0.90555
543.88705	0.90815
542.92271	0.90897
541.95837	0.91699
540.99403	0.92575
540.02969	0.91834
539.06535	0.90577
538.10101	0.91181
537.13667	0.93328
536.17234	0.94420
535.20800	0.93686
534.24366	0.92317
533.27932	0.90660
532.31498	0.90074
531.35064	0.92170
530.38630	0.95645
529.42196	0.98639
528.45763	1.01622
527.49329	1.05363
526.52895	1.08895
525.56461	1.10129
524.60027	1.10075
523.63593	1.12595
522.67159	1.18153
521.70725	1.22603
520.74292	1.22785
519.77858	1.20418
518.81424	1.24067
517.84990	1.41799
516.88556	1.60439
515.92122	1.58344
514.95688	1.56857
513.99254	1.66459
513.02821	1.65655
512.06387	1.54428
511.09953	1.54616
510.13519	1.62972
509.17085	1.65481
508.20651	1.67686
507.24217	1.75064
506.27783	1.71132
505.31350	1.53634
504.34916	1.30401
503.38482	1.21253
502.42048	1.41218
501.45614	1.67726
500.49180	1.58048
499.52746	1.32291
